"Time (s)","Acceleration x (m/s^2)","Acceleration y (m/s^2)","Acceleration z (m/s^2)","Absolute acceleration (m/s^2)"
6.299329000E-3,-2.841000080E0,4.444950104E0,8.560950279E0,1.005578105E1
8.796949000E-3,-2.773950100E0,4.492950439E0,8.437050819E0,9.953151729E0
1.129571900E-2,-2.733000040E0,4.551000118E0,8.343000412E0,9.888708064E0
1.379441100E-2,-2.688000202E0,4.570050240E0,8.359950066E0,9.899468136E0
1.629319700E-2,-2.676000118E0,4.584000111E0,8.398050308E0,9.934851918E0
1.879196600E-2,-2.652000189E0,4.594050407E0,8.430000305E0,9.960085807E0
2.129050700E-2,-2.605950117E0,4.564949989E0,8.346000671E0,9.863339780E0
2.378927400E-2,-2.584950209E0,4.527000427E0,8.290950775E0,9.793649228E0
2.628804300E-2,-2.580000162E0,4.476000309E0,8.169000626E0,9.665585902E0
2.878672800E-2,-2.563050032E0,4.393050194E0,8.089950562E0,9.555909981E0
3.128549500E-2,-2.560950041E0,4.291950226E0,8.029950142E0,9.458298004E0
3.378403500E-2,-2.520000219E0,4.206000328E0,7.975050449E0,9.361745005E0
3.628280300E-2,-2.506050110E0,4.129050255E0,7.993950367E0,9.339838630E0
3.878158700E-2,-2.499000072E0,4.065000057E0,8.049000740E0,9.357117064E0
4.128028100E-2,-2.491050005E0,4.005000114E0,8.134950638E0,9.403338658E0
4.377904800E-2,-2.518050194E0,3.970950127E0,8.251950264E0,9.497563100E0
4.627781800E-2,-2.524950027E0,3.922950268E0,8.410050392E0,9.617372772E0
4.877635800E-2,-2.475000143E0,3.909000158E0,8.575950623E0,9.744374635E0
5.127505200E-2,-2.392950058E0,3.909000158E0,8.752950668E0,9.880315664E0
5.377389800E-2,-2.271000147E0,3.916050196E0,8.913000107E0,9.996722548E0
5.627259300E-2,-2.106000185E0,3.957000256E0,9.054000854E0,1.010287183E1
5.877136000E-2,-1.948050141E0,3.978000164E0,9.217050552E0,1.022611390E1
6.126990000E-2,-1.783050060E0,3.978000164E0,9.397050858E0,1.035897281E1
6.376866800E-2,-1.656000137E0,3.978000164E0,9.547950745E0,1.047521767E1
6.626743700E-2,-1.594050050E0,3.949950218E0,9.648000717E0,1.054642215E1
6.876613100E-2,-1.474050045E0,3.906000137E0,9.745950699E0,1.060250987E1
7.126467000E-2,-1.371000051E0,3.910950184E0,9.793950081E0,1.063468997E1
7.376366800E-2,-1.299000025E0,3.889950275E0,9.841950417E0,1.066222783E1
7.626221800E-2,-1.219950080E0,3.856050253E0,9.873000145E0,1.066927990E1
7.876098500E-2,-1.174950004E0,3.859050274E0,9.865950584E0,1.065878780E1
8.125968000E-2,-1.195950031E0,3.862950087E0,9.823050499E0,1.062285277E1
8.375844700E-2,-1.189050078E0,3.856050253E0,9.808950424E0,1.060652969E1
8.625721600E-2,-1.155000091E0,3.895050287E0,9.732000351E0,1.054596002E1
8.875577100E-2,-1.153050065E0,3.942000151E0,9.643050194E0,1.048128364E1
9.125453800E-2,-1.138950109E0,4.014000416E0,9.495000839E0,1.037132815E1
9.375330700E-2,-1.114950061E0,4.078950405E0,9.327000618E0,1.024079541E1
9.625200200E-2,-1.143000007E0,4.135950089E0,9.136050224E0,1.009355962E1
9.875076900E-2,-1.207950115E0,4.157999992E0,8.968050003E0,9.958615781E0
1.012495380E-1,-1.312950015E0,4.177050114E0,8.755050659E0,9.788896641E0
1.037480780E-1,-1.467000127E0,4.194000244E0,8.568000793E0,9.651547286E0
1.062468460E-1,-1.669950128E0,4.155000210E0,8.422050476E0,9.538537330E0
1.087455400E-1,-1.813950062E0,4.147950172E0,8.274000168E0,9.431595000E0
1.112443070E-1,-1.917000055E0,4.165050030E0,8.134950638E0,9.338091499E0
1.137430760E-1,-1.977000117E0,4.179000378E0,8.008049965E0,9.246698755E0
1.162416170E-1,-2.005050182E0,4.215000153E0,7.920000553E0,9.193087690E0
1.187403840E-1,-2.047950029E0,4.273050308E0,7.833000183E0,9.154722832E0
1.212391530E-1,-2.086950064E0,4.309050083E0,7.744950294E0,9.105357118E0
1.237378480E-1,-2.146950006E0,4.357050419E0,7.728000164E0,9.127719826E0
1.262363950E-1,-2.213999987E0,4.438050270E0,7.692000389E0,9.152319713E0
1.287351620E-1,-2.206050158E0,4.516950130E0,7.636950493E0,9.142893886E0
1.312339320E-1,-2.154000044E0,4.573950291E0,7.611000538E0,9.137180453E0
1.337327010E-1,-2.071950197E0,4.620000362E0,7.618050575E0,9.147244150E0
1.362313950E-1,-2.131950140E0,4.656000137E0,7.567950249E0,9.137692249E0
1.387301720E-1,-2.250000000E0,4.672950268E0,7.594050407E0,9.196116887E0
1.412289420E-1,-2.233050108E0,4.696950436E0,7.588950157E0,9.200001123E0
1.437274820E-1,-2.130000114E0,4.701000214E0,7.606050491E0,9.191752149E0
1.462262490E-1,-2.014950037E0,4.665000439E0,7.666050434E0,9.197313847E0
1.487250190E-1,-1.914000034E0,4.606050014E0,7.711050510E0,9.183648123E0
1.512237180E-1,-1.828050137E0,4.519050121E0,7.750050545E0,9.155701215E0
1.537224850E-1,-1.717950106E0,4.427999973E0,7.741950512E0,9.082749257E0
1.562210260E-1,-1.584000111E0,4.330049992E0,7.705950260E0,8.979980996E0
1.587197930E-1,-1.450050116E0,4.230000019E0,7.690050602E0,8.895640717E0
1.612185620E-1,-1.297050118E0,4.090950012E0,7.720950603E0,8.833532093E0
1.637172600E-1,-1.135950089E0,3.964050293E0,7.714050293E0,8.747036598E0
1.662160280E-1,-9.499500394E-1,3.817950249E0,7.644000530E0,8.597086325E0
1.687147970E-1,-7.939500213E-1,3.721950293E0,7.632000446E0,8.528229677E0
1.712133370E-1,-6.169500351E-1,3.649950266E0,7.624950409E0,8.476003364E0
1.737121050E-1,-5.020500422E-1,3.552000284E0,7.668000221E0,8.465635691E0
1.762108690E-1,-4.870500267E-1,3.459000111E0,7.750050545E0,8.500893067E0
1.787095630E-1,-5.040000081E-1,3.397050142E0,7.804950237E0,8.527087069E0
1.812083300E-1,-5.160000324E-1,3.355950117E0,7.873950481E0,8.574832558E0
1.837068710E-1,-5.230500102E-1,3.361050129E0,7.954950333E0,8.651674640E0
1.862056340E-1,-5.470499992E-1,3.376950264E0,8.058000565E0,8.754109314E0
1.887044030E-1,-5.929500461E-1,3.397050142E0,8.166000366E0,8.864259778E0
1.912030980E-1,-6.720000505E-1,3.436950207E0,8.302950859E0,9.011282026E0
1.937018650E-1,-7.099500299E-1,3.451950073E0,8.439000130E0,9.145310905E0
1.962006340E-1,-7.840500474E-1,3.483000278E0,8.667000771E0,9.373522698E0
1.986991750E-1,-8.680500388E-1,3.538050175E0,8.872050285E0,9.590859512E0
2.011978650E-1,-8.970000148E-1,3.622050285E0,9.025950432E0,9.766864312E0
2.036966340E-1,-8.490000367E-1,3.748050213E0,9.133049965E0,9.908646887E0
2.061954030E-1,-7.990500331E-1,3.865950108E0,9.226950645E0,1.003596878E1
2.086941730E-1,-7.699500322E-1,3.985950232E0,9.298950195E0,1.014648200E1
2.111926890E-1,-8.230500221E-1,4.048050404E0,9.358050346E0,1.022923407E1
2.136914560E-1,-9.180000424E-1,4.102950096E0,9.367950439E0,1.026817506E1
2.161902260E-1,-9.880500436E-1,4.108050346E0,9.366000175E0,1.027493454E1
2.186889200E-1,-1.036050081E0,4.138950348E0,9.373050690E0,1.029846537E1
2.211876870E-1,-1.072050095E0,4.144050121E0,9.334950447E0,1.026955416E1
2.236864510E-1,-1.072050095E0,4.144050121E0,9.313050270E0,1.024965112E1
2.261849920E-1,-1.087950110E0,4.159950256E0,9.258000374E0,1.020781037E1
2.286837590E-1,-1.135950089E0,4.153050423E0,9.184050560E0,1.014322410E1
2.311824530E-1,-1.150950074E0,4.162950039E0,9.136050224E0,1.010555554E1
2.336812350E-1,-1.167000055E0,4.206000328E0,9.078000069E0,1.007285526E1
2.361797750E-1,-1.191000104E0,4.263000011E0,8.995050430E0,1.002509763E1
2.386785420E-1,-1.198950052E0,4.342050076E0,8.920050621E0,9.992906643E0
2.411773120E-1,-1.198950052E0,4.399950027E0,8.869950294E0,9.973618185E0
2.436760810E-1,-1.219950080E0,4.444950104E0,8.758049965E0,9.896933809E0
2.461747700E-1,-1.246050000E0,4.498050213E0,8.619000435E0,9.801646026E0
2.486735370E-1,-1.285050035E0,4.546050072E0,8.563950539E0,9.780550786E0
2.511720780E-1,-1.315950036E0,4.606050014E0,8.473050117E0,9.733447464E0
2.536708450E-1,-1.321050048E0,4.632000446E0,8.295000076E0,9.592060656E0
2.561696140E-1,-1.291950107E0,4.620000362E0,8.130000114E0,9.439832641E0
2.586683090E-1,-1.234050035E0,4.645950317E0,7.981950283E0,9.317685558E0
2.611670760E-1,-1.246050000E0,4.630050182E0,7.809000492E0,9.163541563E0
2.636658450E-1,-1.300950050E0,4.608000278E0,7.648950577E0,9.024000362E0
2.661643860E-1,-1.348950028E0,4.564949989E0,7.591950417E0,8.960811666E0
2.686631530E-1,-1.380000114E0,4.552950382E0,7.522050381E0,8.900280862E0
2.711619220E-1,-1.414050102E0,4.536000252E0,7.504950523E0,8.882517567E0
2.736606160E-1,-1.452000022E0,4.504950047E0,7.467000484E0,8.840756485E0
2.761593840E-1,-1.443000078E0,4.459950447E0,7.447950363E0,8.800305212E0
2.786579240E-1,-1.440000057E0,4.438050270E0,7.513050556E0,8.843970772E0
2.811567010E-1,-1.419000030E0,4.357050419E0,7.501050472E0,8.789949239E0
2.836554700E-1,-1.387950063E0,4.297049999E0,7.510050297E0,8.763098740E0
2.861541650E-1,-1.324950099E0,4.237050056E0,7.467000484E0,8.687012270E0
2.886529320E-1,-1.201050043E0,4.186950207E0,7.311000347E0,8.510217348E0
2.911517010E-1,-1.102950096E0,4.108050346E0,7.326000214E0,8.471295987E0
2.936502420E-1,-9.469500184E-1,4.096050262E0,7.474050522E0,8.575300187E0
2.961490090E-1,-7.699500322E-1,4.048050404E0,7.684950352E0,8.719976894E0
2.986477030E-1,-4.800000191E-1,4.024050236E0,7.735050201E0,8.732375504E0
3.011464710E-1,-7.095000148E-2,4.072050095E0,7.774050236E0,8.776245378E0
3.036450110E-1,3.829500079E-1,4.218000412E0,8.005949974E0,9.057229884E0
3.061437730E-1,5.479500294E-1,4.242000103E0,9.331950188E0,1.026548140E1
3.086425420E-1,6.820500493E-1,4.237050056E0,1.000695038E1,1.088838102E1
3.111413120E-1,1.329000115E0,4.563000202E0,9.688950539E0,1.079180127E1
3.136400060E-1,1.681050062E0,4.597949982E0,9.496950150E0,1.068452786E1
3.161387730E-1,1.744950056E0,4.576950073E0,9.385050774E0,1.058643003E1
3.186373040E-1,1.590000033E0,4.467000008E0,9.306000710E0,1.044432087E1
3.211360710E-1,1.507950068E0,4.390050411E0,9.136050224E0,1.024762752E1
3.236347650E-1,1.438950062E0,4.287000179E0,8.923050880E0,1.000348863E1
3.261335330E-1,1.396050096E0,4.251000404E0,8.679000854E0,9.764477259E0
3.286323070E-1,1.285950065E0,4.183950424E0,8.381999969E0,9.456057964E0
3.311308470E-1,1.266000032E0,4.132050037E0,8.110950470E0,9.190435850E0
3.336296140E-1,1.422000051E0,4.060050011E0,7.765950203E0,8.877841674E0
3.361283840E-1,1.390950084E0,3.954000235E0,7.467000484E0,8.562999254E0
3.386271530E-1,1.570950031E0,3.918000221E0,7.261050224E0,8.398896362E0
3.411258330E-1,1.623000026E0,3.808050156E0,6.982950211E0,8.117694791E0
3.436246000E-1,1.776000142E0,3.760050297E0,6.811050415E0,7.980135494E0
3.461231410E-1,1.810050130E0,3.673950195E0,6.505050182E0,7.686993521E0
3.486219080E-1,1.792950034E0,3.538050175E0,6.210000515E0,7.368620988E0
3.511206030E-1,1.417050123E0,3.265050173E0,5.932050228E0,6.917933477E0
3.536193710E-1,1.294950008E0,3.078000069E0,5.640000343E0,6.554432380E0
3.561181400E-1,1.068000078E0,2.578050137E0,5.041950226E0,5.762658133E0
3.586169090E-1,1.175999999E0,2.590050220E0,4.833000183E0,5.607961030E0
3.611154500E-1,9.340500236E-1,2.130000114E0,4.707000256E0,5.250257264E0
3.636142120E-1,1.063050032E0,1.705950022E0,4.291950226E0,4.739322482E0
3.661129060E-1,1.041000009E0,1.072050095E0,3.861000299E0,4.140084025E0
3.686116730E-1,1.221000075E0,9.040500522E-1,3.454050064E0,3.773408211E0
3.711102140E-1,1.209000111E0,5.670000315E-1,3.181050062E0,3.449963739E0
3.736089810E-1,1.164000034E0,4.009500146E-1,2.983050108E0,3.227110928E0
3.761077640E-1,1.008000016E0,-4.305000231E-2,2.604000092E0,2.792621316E0
3.786064590E-1,1.006049991E0,-3.105000220E-2,2.365050077E0,2.570323434E0
3.811052260E-1,1.243050098E0,-3.795000166E-2,2.157000065E0,2.489831928E0
3.836039950E-1,1.558950067E0,-1.170000061E-1,2.275950193E0,2.761152584E0
3.861027640E-1,2.152050018E0,-1.549500078E-1,2.430000067E0,3.249650614E0
3.886013050E-1,2.734050035E0,-4.500000179E-1,2.341050148E0,3.627402019E0
3.911000720E-1,2.803950071E0,-5.220000148E-1,2.350950003E0,3.696158267E0
3.935987660E-1,2.964000225E0,-6.030000448E-1,2.218950033E0,3.751352508E0
3.960975340E-1,2.878050089E0,-5.100000501E-1,2.128050089E0,3.615504051E0
3.985960830E-1,2.854050159E0,-5.860500336E-1,1.843050122E0,3.447592016E0
4.010948500E-1,2.602050066E0,-7.110000253E-1,1.242000103E0,2.969637998E0
4.035936200E-1,2.137950182E0,-8.760000467E-1,8.590500355E-1,2.464989660E0
4.060923140E-1,1.537050128E0,-1.075049996E0,1.294950008E0,2.279287414E0
4.085910810E-1,1.003050089E0,-1.276050091E0,2.748000145E0,3.191538518E0
4.110898410E-1,4.999500215E-1,-1.663950086E0,6.469050407E0,6.698305240E0
4.135883820E-1,8.100000024E-2,-1.920000076E0,1.041405010E1,1.058987256E1
4.160871490E-1,8.895000070E-2,-1.858050108E0,1.140300083E1,1.155373058E1
4.185858430E-1,3.330000043E-1,-1.831050038E0,1.147005081E1,1.162005589E1
4.210846880E-1,9.120000601E-1,-1.470000029E0,1.179105091E1,1.191727846E1
4.235833720E-1,2.241000175E0,-1.258950114E0,1.197300053E1,1.224580658E1
4.260819100E-1,3.445050240E0,-1.024950027E0,1.207605076E1,1.259959903E1
4.285806780E-1,4.116000175E0,-9.430500269E-1,1.266000080E1,1.334565177E1
4.310794470E-1,5.710050106E0,-4.240500331E-1,1.273905087E1,1.396667131E1
4.335782120E-1,6.991050243E0,-1.080000028E-1,1.250400066E1,1.432607693E1
4.360769060E-1,7.699950218E0,1.840500087E-1,1.276305103E1,1.490699767E1
4.385754450E-1,7.575000286E0,1.159500033E-1,1.318395042E1,1.520561155E1
4.410744430E-1,7.300050259E0,1.909500062E-1,1.425900078E1,1.602018411E1
4.435729830E-1,7.317000389E0,3.250500262E-1,1.480005074E1,1.651319636E1
4.460716740E-1,7.210950375E0,3.630000055E-1,1.545195103E1,1.705556698E1
4.485704430E-1,6.907050133E0,3.439500034E-1,1.619595146E1,1.761063562E1
4.510692120E-1,6.498000145E0,3.649500310E-1,1.706805038E1,1.826678785E1
4.535677530E-1,6.012000084E0,4.999500215E-1,1.767794991E1,1.867897235E1
4.560665200E-1,5.563950062E0,6.379500031E-1,1.811205101E1,1.895813578E1
4.585652980E-1,5.262000084E0,7.720500231E-1,1.844895172E1,1.920022202E1
4.610640670E-1,5.041950226E0,8.539500237E-1,1.874895096E1,1.943382759E1
4.635627620E-1,4.968000412E0,9.019500613E-1,1.911000061E1,1.976579534E1
4.660613000E-1,5.563950062E0,6.720000505E-1,1.922294998E1,2.002325973E1
4.685602840E-1,5.200050354E0,3.649500310E-1,1.948095131E1,2.016633770E1
4.710588250E-1,5.097000122E0,2.295000106E-2,1.943295097E1,2.009028423E1
4.735575150E-1,5.037000179E0,-3.019500077E-1,1.929900169E1,1.994778211E1
4.760562840E-1,4.980000019E0,-6.079500318E-1,1.911000061E1,1.975758403E1
4.785550530E-1,5.041950226E0,-8.590500355E-1,1.879605103E1,1.947949597E1
4.810538230E-1,5.107050419E0,-1.024950027E0,1.842495155E1,1.914709707E1
4.835523630E-1,5.176050186E0,-1.116000056E0,1.800405121E1,1.876653435E1
4.860510530E-1,5.158950329E0,-1.128000021E0,1.761600113E1,1.839050430E1
4.885499000E-1,5.289000034E0,-1.000950098E0,1.721100044E1,1.803313502E1
4.910486130E-1,5.410950184E0,-8.640000224E-1,1.666800117E1,1.754557326E1
4.935471510E-1,5.542950153E0,-3.640500307E-1,1.596195030E1,1.690090785E1
4.960459190E-1,5.590050220E0,3.010500073E-1,1.502805042E1,1.603688224E1
4.985446880E-1,5.788950443E0,1.246950030E0,1.389105034E1,1.510059969E1
5.010433910E-1,5.740950108E0,2.262000084E0,1.261005020E1,1.403882184E1
5.035421580E-1,5.701050282E0,3.207000256E0,1.136700058E1,1.311470652E1
5.060409280E-1,5.824950218E0,4.096050262E0,9.873000145E0,1.217307704E1
5.085396970E-1,5.671950340E0,4.689000130E0,8.713950157E0,1.140572971E1
5.110382420E-1,5.236050129E0,4.837950230E0,7.969950199E0,1.069308606E1
5.135370090E-1,4.618050098E0,4.563000202E0,7.572000504E0,9.974093903E0
5.160357790E-1,3.985950232E0,3.874950171E0,7.407000542E0,9.261030995E0
5.185344730E-1,3.297000170E0,2.997000217E0,7.591950417E0,8.802836563E0
5.210330120E-1,2.751000166E0,2.092050076E0,7.951050282E0,8.669710261E0
5.235317990E-1,2.305950165E0,1.227000117E0,8.587950706E0,8.976404224E0
5.260305680E-1,1.939050078E0,4.849500358E-1,9.210000038E0,9.424393479E0
5.285292620E-1,1.563000083E0,-1.240500063E-1,9.691050529E0,9.817067690E0
5.310280300E-1,1.173000097E0,-5.839500427E-1,9.981000900E0,1.006664323E1
5.335268030E-1,7.609500289E-1,-9.190500379E-1,1.009095001E1,1.016124845E1
5.360255720E-1,3.570000231E-1,-1.173000097E0,1.016100025E1,1.023471076E1
5.385241120E-1,-5.895000324E-2,-1.381050110E0,1.018905067E1,1.028238922E1
5.410228800E-1,-3.010500073E-1,-1.587000132E0,1.000695038E1,1.013648146E1
5.435215840E-1,-4.729500115E-1,-1.839000106E0,9.672000885E0,9.856632499E0
5.460203510E-1,-6.960000396E-1,-2.179050207E0,9.211950302E0,9.491717665E0
5.485188920E-1,-1.098000050E0,-2.605050087E0,8.607000351E0,9.059378848E0
5.510176590E-1,-1.500000119E0,-3.097950220E0,7.915050507E0,8.631067167E0
5.535164280E-1,-1.785000086E0,-3.511950254E0,7.198950291E0,8.206394165E0
5.560151130E-1,-2.242050171E0,-3.934050083E0,6.696000099E0,8.083313451E0
5.585138800E-1,-2.874000072E0,-4.341000080E0,6.382050514E0,8.236184000E0
5.610126490E-1,-3.552000284E0,-4.731000423E0,5.986950397E0,8.416807357E0
5.635111890E-1,-4.170000076E0,-5.157000065E0,5.427000046E0,8.569473718E0
5.660099570E-1,-4.828050137E0,-5.724000454E0,4.642050266E0,8.810384781E0
5.685086510E-1,-5.329050064E0,-6.258000374E0,3.804000139E0,9.057138639E0
5.710074180E-1,-5.712000370E0,-6.748950481E0,2.937000036E0,9.316718845E0
5.735061870E-1,-6.121050358E0,-7.314000130E0,2.077950001E0,9.761133724E0
5.760047280E-1,-6.379950523E0,-7.740000248E0,1.390950084E0,1.012650555E1
5.785034850E-1,-6.652950287E0,-8.182950020E0,7.939500213E-1,1.057604724E1
5.810022540E-1,-6.946950436E0,-8.643000603E0,2.290500104E-1,1.109116963E1
5.835009490E-1,-7.210050106E0,-8.980050087E0,-2.295000106E-2,1.151636439E1
5.859997160E-1,-7.339950562E0,-9.364050865E0,-3.130500019E-1,1.190203021E1
5.884984950E-1,-7.323000431E0,-9.747000694E0,-8.040000200E-1,1.221788746E1
5.909972640E-1,-7.177050114E0,-1.013400078E1,-1.435950041E0,1.250079888E1
5.934958050E-1,-6.909000397E0,-1.047405052E1,-2.061000109E0,1.271564950E1
5.959945720E-1,-6.541950226E0,-1.080195045E1,-2.755050182E0,1.292553859E1
5.984932660E-1,-6.118950367E0,-1.109205055E1,-3.481050253E0,1.313745980E1
6.009920100E-1,-5.665950298E0,-1.131000042E1,-4.230000019E0,1.333836581E1
6.034905500E-1,-5.143950462E0,-1.144695091E1,-4.953000069E0,1.349166859E1
6.059893170E-1,-4.558050156E0,-1.149000072E1,-5.638050079E0,1.358615275E1
6.084880870E-1,-3.837000132E0,-1.134405041E1,-6.235950470E0,1.350174537E1
6.109867810E-1,-2.901000023E0,-1.115895081E1,-6.751050472E0,1.336093809E1
6.134855570E-1,-1.773000121E0,-1.081200027E1,-7.158000469E0,1.308739279E1
6.159840980E-1,9.960000515E-1,-9.663000107E0,-6.756000519E0,1.183254538E1
6.184828650E-1,1.870050073E0,-1.015800095E1,-6.892050266E0,1.241702168E1
6.209816340E-1,1.282950044E0,-1.021095085E1,-6.751050472E0,1.230797142E1
6.234803280E-1,1.647000074E0,-1.012005043E1,-7.498050213E0,1.270231424E1
6.259790960E-1,2.143050194E0,-1.014195061E1,-7.942950249E0,1.305918393E1
6.284778650E-1,2.703000069E0,-1.032795048E1,-8.077050209E0,1.338699035E1
6.309764050E-1,2.904000044E0,-1.059195042E1,-8.262000084E0,1.374348119E1
6.334751730E-1,3.232050180E0,-1.075695038E1,-8.439000130E0,1.404901609E1
6.359739330E-1,3.682050228E0,-1.085295010E1,-8.500950813E0,1.426920406E1
6.384726270E-1,4.087049961E0,-1.101300049E1,-8.463000298E0,1.447800163E1
6.409713940E-1,4.501049995E0,-1.124295044E1,-8.233050346E0,1.464399207E1
6.434699350E-1,4.735949993E0,-1.156605053E1,-7.555950165E0,1.460462701E1
6.459687020E-1,4.696950436E0,-1.182195091E1,-6.769950390E0,1.441013862E1
6.484674800E-1,4.635000229E0,-1.197105026E1,-5.889000416E0,1.412337061E1
6.509661750E-1,4.647000313E0,-1.198005104E1,-4.933950424E0,1.376445065E1
6.534649420E-1,4.696950436E0,-1.192095089E1,-4.089000225E0,1.344954781E1
6.559637110E-1,4.831050396E0,-1.186095047E1,-3.334950209E0,1.323416363E1
6.584622520E-1,5.112000465E0,-1.185105038E1,-2.454000235E0,1.313781036E1
6.609610190E-1,5.635950089E0,-1.187295055E1,-1.576950073E0,1.323698077E1
6.634597880E-1,6.448050499E0,-1.191105080E1,-5.860500336E-1,1.355706240E1
6.659584820E-1,7.762050152E0,-1.188900089E1,3.829500079E-1,1.420367613E1
6.684572500E-1,9.391950607E0,-1.180605030E1,1.375950098E0,1.514875568E1
6.709557760E-1,1.108305073E1,-1.161900043E1,2.485050201E0,1.624840482E1
6.734545430E-1,1.274400043E1,-1.134105015E1,3.736950159E0,1.746407060E1
6.759533130E-1,1.426005077E1,-1.091700077E1,5.062950134E0,1.865913765E1
6.784520070E-1,1.571295071E1,-1.041195011E1,6.361050129E0,1.989393083E1
6.809507740E-1,1.702995110E1,-9.802050591E0,7.539000511E0,2.104604378E1
6.834493000E-1,1.825095177E1,-9.189000130E0,8.611050606E0,2.217397475E1
6.859480670E-1,1.935000038E1,-8.523000717E0,9.508950233E0,2.318370528E1
6.884468360E-1,2.030805016E1,-7.888950348E0,1.026105022E1,2.408197646E1
