"Time (s)","Acceleration x (m/s^2)","Acceleration y (m/s^2)","Acceleration z (m/s^2)","Absolute acceleration (m/s^2)"
8.308392000E-3,-6.274950504E0,2.611950159E0,4.894050121E0,8.375500824E0
1.080777500E-2,-6.277050495E0,2.635950089E0,5.041950226E0,8.471768285E0
1.330715900E-2,-6.246000290E0,2.683950186E0,5.230950356E0,8.577817312E0
1.580646900E-2,-6.136050224E0,2.691000223E0,5.446950436E0,8.634921170E0
1.830585200E-2,-5.977950096E0,2.739000082E0,5.695950508E0,8.699532228E0
2.080522600E-2,-5.806050301E0,2.773050070E0,5.899050236E0,8.729193575E0
2.330438200E-2,-5.611950397E0,2.818050146E0,6.127050400E0,8.773604760E0
2.580376500E-2,-5.418000221E0,2.859000206E0,6.349050522E0,8.822644224E0
2.830314900E-2,-5.236050129E0,2.872950077E0,6.514950275E0,8.838248706E0
3.080253400E-2,-5.104050159E0,2.880000114E0,6.643950462E0,8.859334424E0
3.330183900E-2,-5.004000187E0,2.880000114E0,6.775950432E0,8.902130239E0
3.580122100E-2,-4.885950089E0,2.875050068E0,6.868950367E0,8.906228175E0
3.830060600E-2,-4.747050285E0,2.860950232E0,6.948000431E0,8.887869971E0
4.079976200E-2,-4.635000229E0,2.818050146E0,7.036950111E0,8.885004255E0
4.329915400E-2,-4.554000378E0,2.770050049E0,7.125000477E0,8.898186810E0
4.579853900E-2,-4.525050163E0,2.703000069E0,7.216050148E0,8.936087963E0
4.829784900E-2,-4.453050137E0,2.605050087E0,7.309050560E0,8.946404952E0
5.079723100E-2,-4.390950203E0,2.446950197E0,7.393050194E0,8.940089492E0
5.329661600E-2,-4.348050117E0,2.338950157E0,7.446000576E0,8.934156493E0
5.579600000E-2,-4.293000221E0,2.253000021E0,7.543950558E0,8.967555409E0
5.829515500E-2,-4.230000019E0,2.169000149E0,7.719000340E0,9.065342136E0
6.079453800E-2,-4.177950382E0,2.100000143E0,7.915050507E0,9.193111253E0
6.329392300E-2,-4.081950188E0,2.041949987E0,8.134950638E0,9.327877517E0
6.579323200E-2,-3.961950302E0,1.957950115E0,8.406000137E0,9.496918298E0
6.829262500E-2,-3.876000166E0,1.906050086E0,8.632950783E0,9.653198612E0
7.079178100E-2,-3.795000076E0,1.846050143E0,8.794050217E0,9.754242458E0
7.329116300E-2,-3.735000134E0,1.819950104E0,8.929950714E0,9.849185963E0
7.579054800E-2,-3.687000275E0,1.831950068E0,9.021000862E0,9.916071230E0
7.828985800E-2,-3.682050228E0,1.855950117E0,8.880000114E0,9.790630559E0
8.078924000E-2,-3.711000204E0,1.816950083E0,8.983050346E0,9.887771419E0
8.328862500E-2,-3.670050144E0,1.812000036E0,9.199050903E0,1.006852272E1
8.578778100E-2,-3.586050272E0,1.819950104E0,9.385050774E0,1.021034539E1
8.828716400E-2,-3.493050098E0,1.822050095E0,9.495000839E0,1.027989817E1
9.078655300E-2,-3.376050234E0,1.828950047E0,9.687000275E0,1.042020862E1
9.328593800E-2,-3.322950125E0,1.804950118E0,9.823050499E0,1.052578565E1
9.578524700E-2,-3.318000078E0,1.780950069E0,9.931050301E0,1.062104834E1
9.828463000E-2,-3.210000038E0,1.792950034E0,1.002900028E1,1.068174221E1
1.007840150E-1,-3.105000257E0,1.810050130E0,1.010400009E1,1.072418416E1
1.032831460E-1,-3.052050114E0,1.822050095E0,1.011495018E1,1.072133824E1
1.057825280E-1,-2.985000134E0,1.828950047E0,1.010805035E1,1.069710082E1
1.082819130E-1,-2.941950083E0,1.851000071E0,1.011105061E1,1.069180134E1
1.107812970E-1,-2.904000044E0,1.887000084E0,1.012500095E1,1.070091724E1
1.132806070E-1,-2.884950161E0,1.932000041E0,1.017300034E1,1.074920915E1
1.157799810E-1,-2.893950224E0,1.969950080E0,1.016805077E1,1.075383223E1
1.182791370E-1,-2.920950174E0,2.017950058E0,1.015905094E1,1.076152352E1
1.207785190E-1,-2.968950033E0,2.047049999E0,1.020900059E1,1.082722361E1
1.232779040E-1,-3.004050255E0,2.076000214E0,1.036005020E1,1.098475011E1
1.257772140E-1,-3.049950123E0,2.089950085E0,1.053195095E1,1.116208215E1
1.282765910E-1,-3.040050030E0,2.128050089E0,1.070205021E1,1.132715234E1
1.307759760E-1,-2.977950096E0,2.149950027E0,1.084095097E1,1.144625221E1
1.332751320E-1,-2.932950258E0,2.149950027E0,1.093905067E1,1.152767591E1
1.357745140E-1,-2.920950174E0,2.136000156E0,1.096095085E1,1.154282852E1
1.382738990E-1,-2.656950235E0,2.029950142E0,1.090095043E1,1.140222796E1
1.407732680E-1,-1.852950096E0,2.059050083E0,1.022805023E1,1.059651466E1
1.432725780E-1,-2.494050026E0,2.083050013E0,1.065405083E1,1.113858976E1
1.457719610E-1,-2.902050257E0,1.812000036E0,1.115205097E1,1.166505382E1
1.482713450E-1,-3.025950193E0,1.707000136E0,1.115700054E1,1.168541335E1
1.507705010E-1,-3.004050255E0,1.659000039E0,1.076205063E1,1.129594320E1
1.532698890E-1,-3.043050051E0,1.591950059E0,1.044795036E1,1.099791459E1
1.557692740E-1,-3.040050030E0,1.518000126E0,1.011105061E1,1.066675081E1
1.582685830E-1,-3.012000084E0,1.465050101E0,9.744000435E0,1.030359456E1
1.607679660E-1,-3.021000147E0,1.410000086E0,9.390000343E0,9.964268592E0
1.632673500E-1,-3.028050184E0,1.348050117E0,8.929950714E0,9.525247860E0
1.657664960E-1,-3.024000168E0,1.281000018E0,8.499000549E0,9.111451498E0
1.682658790E-1,-2.985000134E0,1.231050014E0,8.133000374E0,8.750508843E0
1.707651890E-1,-2.908950090E0,1.209000111E0,7.798050404E0,8.410306891E0
1.732646480E-1,-2.863050222E0,1.159050107E0,7.531950474E0,8.140683735E0
1.757639680E-1,-2.842050076E0,1.141950011E0,7.305000305E0,7.921131732E0
1.782633500E-1,-2.833950043E0,1.144050002E0,7.068000317E0,7.700438411E0
1.807625060E-1,-2.787000179E0,1.129950047E0,6.898050308E0,7.525108316E0
1.832618890E-1,-2.794050217E0,1.108950019E0,6.655950546E0,7.303298189E0
1.857612740E-1,-2.719950199E0,1.093950033E0,6.505050182E0,7.135161781E0
1.882606630E-1,-2.731950045E0,1.051050067E0,6.349050522E0,6.991330333E0
1.907599730E-1,-2.740950108E0,1.051050067E0,6.190950394E0,6.851669907E0
1.932593560E-1,-2.643000126E0,1.077000022E0,6.057000160E0,6.695717262E0
1.957585110E-1,-2.515950203E0,1.111050010E0,5.832000256E0,6.447996939E0
1.982581450E-1,-2.410950184E0,1.140000105E0,5.623950481E0,6.224234896E0
2.007573010E-1,-2.425050020E0,1.125000000E0,5.533050060E0,6.145008997E0
2.032566830E-1,-2.461050034E0,1.161000013E0,5.440050125E0,6.082666657E0
2.057559930E-1,-2.539950132E0,1.207050085E0,5.443950176E0,6.127390154E0
2.082553760E-1,-2.562000036E0,1.204050064E0,5.443950176E0,6.135973783E0
2.107547550E-1,-2.688000202E0,1.207050085E0,5.527950287E0,6.264227755E0
2.132539110E-1,-2.767050028E0,1.168050051E0,5.796000481E0,6.527980419E0
2.157532940E-1,-2.799000025E0,1.120950103E0,6.031050205E0,6.742736599E0
2.182526780E-1,-2.638050079E0,1.093950033E0,6.139050484E0,6.770817952E0
2.207520630E-1,-2.491950035E0,1.087050080E0,6.181950092E0,6.753369514E0
2.232513680E-1,-2.241000175E0,1.233000040E0,6.208050251E0,6.714332342E0
2.257507500E-1,-1.723950028E0,1.621050119E0,6.232050419E0,6.666202788E0
2.282499060E-1,-1.458000064E0,1.759950042E0,6.631950378E0,7.014695586E0
2.307492890E-1,-1.372050047E0,1.750050068E0,6.922050476E0,7.270486873E0
2.332486730E-1,-1.518000126E0,1.923000097E0,7.779000282E0,8.155678951E0
2.357480630E-1,-2.085000038E0,2.224050045E0,9.447000504E0,9.926703495E0
2.382473730E-1,-2.812950134E0,2.314950228E0,1.081695080E1,1.141394356E1
2.407467550E-1,-3.040050030E0,1.824000120E0,1.119000053E1,1.173818523E1
2.432461400E-1,-3.013950109E0,1.578000069E0,1.134405041E1,1.184320308E1
2.457455150E-1,-2.881950140E0,1.495950103E0,1.121895027E1,1.167939847E1
2.482446700E-1,-2.752950191E0,1.438950062E0,1.116405010E1,1.158815459E1
2.507440530E-1,-2.671950102E0,1.140000105E0,1.106400013E1,1.143901291E1
2.532433630E-1,-2.562000036E0,8.569500446E-1,1.090800095E1,1.123755722E1
2.557427450E-1,-2.511000156E0,6.559500098E-1,1.073295021E1,1.104226482E1
2.582421300E-1,-2.443950176E0,4.480500221E-1,1.063005066E1,1.091657539E1
2.607415150E-1,-2.358000040E0,3.520500064E-1,1.051995087E1,1.078672655E1
2.632406700E-1,-2.335950136E0,3.060000241E-1,1.047195053E1,1.073368748E1
2.657400530E-1,-2.334000111E0,2.629500031E-1,1.062495041E1,1.088146453E1
2.682393580E-1,-2.293050051E0,2.040000111E-1,1.069695091E1,1.094186700E1
2.707387400E-1,-2.241000175E0,1.369500011E-1,1.073100090E1,1.096335794E1
2.732381250E-1,-2.121000051E0,6.195000187E-2,1.068495083E1,1.089360607E1
2.757372810E-1,-2.083050013E0,1.950000064E-3,1.054605007E1,1.074980341E1
2.782366630E-1,-2.065950155E0,-3.195000067E-2,1.041195011E1,1.061498356E1
2.807360290E-1,-1.932000041E0,-1.605000161E-2,1.018005085E1,1.036177191E1
2.832354140E-1,-1.768950105E0,-1.050000079E-3,9.936000824E0,1.009223949E1
2.857347230E-1,-1.707000136E0,6.495000422E-2,9.802050591E0,9.949787121E0
2.882341060E-1,-1.639950037E0,9.300000221E-2,9.723000526E0,9.860771996E0
2.907334960E-1,-1.714050055E0,1.219500080E-1,9.739950180E0,9.890372536E0
2.932326510E-1,-1.714050055E0,1.270500124E-1,9.766050339E0,9.916140807E0
2.957320340E-1,-1.695000052E0,1.050000042E-1,9.808950424E0,9.954876122E0
2.982314190E-1,-1.803000093E0,8.595000207E-2,9.924000740E0,1.008682246E1
3.007307280E-1,-1.933950067E0,8.595000207E-2,1.004100037E1,1.022591016E1
3.032301160E-1,-1.989000082E0,1.030500084E-1,1.011300087E1,1.030725605E1
3.057295010E-1,-2.110949993E0,8.400000632E-2,1.015605068E1,1.037345320E1
3.082288850E-1,-2.158950090E0,8.100000024E-2,1.012005043E1,1.034809389E1
3.107280410E-1,-2.250000000E0,1.030500084E-1,1.005105019E1,1.030032665E1
3.132273470E-1,-2.437050104E0,1.480500102E-1,1.003200054E1,1.032483254E1
3.157267310E-1,-2.607000113E0,2.110500038E-1,9.952950478E0,1.029088018E1
3.182261160E-1,-2.775000095E0,2.590500116E-1,9.852000237E0,1.023863473E1
3.207255010E-1,-3.004050255E0,3.040500283E-1,9.747000694E0,1.020395937E1
3.232246420E-1,-3.229950190E0,2.850000262E-1,9.591000557E0,1.012428244E1
3.257240240E-1,-3.454950094E0,2.560500205E-1,9.445050240E0,1.006037851E1
3.282234090E-1,-3.727950096E0,2.200500071E-1,9.297000885E0,1.001899493E1
3.307227180E-1,-3.886050224E0,1.009500027E-1,9.100049973E0,9.895579152E0
3.332220870E-1,-3.886050224E0,4.095000029E-2,8.908950806E0,9.719694836E0
3.357214720E-1,-3.874050140E0,-7.304999977E-2,8.751000404E0,9.570454998E0
3.382208560E-1,-3.751050234E0,-1.740000099E-1,8.701050758E0,9.476757787E0
3.407200120E-1,-3.720000267E0,-3.079500198E-1,8.638050079E0,9.410055493E0
3.432193950E-1,-3.691950083E0,-4.800000191E-1,8.662050247E0,9.428255932E0
3.457187790E-1,-3.682050228E0,-5.950500369E-1,8.799000740E0,9.556881942E0
3.482180890E-1,-3.649050236E0,-7.339500189E-1,8.947050095E0,9.690405340E0
3.507174720E-1,-3.649050236E0,-8.389500380E-1,9.121950150E0,9.860495896E0
3.532168560E-1,-3.700950146E0,-9.229500294E-1,9.340050697E0,1.008887584E1
3.557160070E-1,-3.756000280E0,-1.002000093E0,9.538050652E0,1.029980352E1
3.582153900E-1,-3.840000153E0,-1.057050109E0,9.723000526E0,1.050712593E1
3.607147740E-1,-3.928950071E0,-1.110000014E0,9.913950920E0,1.072171495E1
3.632140840E-1,-4.019999981E0,-1.090950012E0,1.002195072E1,1.085311329E1
3.657134670E-1,-4.101000309E0,-9.949500561E-1,1.014900017E1,1.099137542E1
3.682126090E-1,-4.174950123E0,-7.990500331E-1,1.023795033E1,1.108531986E1
3.707119910E-1,-4.056000233E0,-3.319500089E-1,1.037595081E1,1.114547819E1
3.732113760E-1,-4.132050037E0,-8.295000345E-2,1.060395050E1,1.138088241E1
3.757107610E-1,-4.039050102E0,6.229500175E-1,9.799050331E0,1.061712672E1
3.782100700E-1,-4.170000076E0,1.039050102E0,1.032105064E1,1.118000949E1
3.807094480E-1,-3.651000261E0,1.279050112E0,1.175805092E1,1.237810702E1
3.832088320E-1,-3.610050201E0,1.422000051E0,1.221300030E1,1.281452000E1
3.857082170E-1,-3.361050129E0,1.834050059E0,1.261305046E1,1.318140507E1
3.882073730E-1,-3.474000216E0,2.073000193E0,1.304400063E1,1.365693815E1
3.907067560E-1,-3.091050148E0,1.936950088E0,1.271805096E1,1.323084226E1
3.932060790E-1,-1.419000030E0,1.698000073E0,1.056105042E1,1.079039161E1
3.957054620E-1,3.580500185E-1,1.188000083E0,7.636950493E0,7.737089688E0
3.982048460E-1,2.278950214E0,1.294950008E0,4.984950066E0,5.632072155E0
4.007042310E-1,4.105050087E0,2.053950071E0,3.760950089E0,5.934213737E0
4.032033870E-1,5.833950043E0,3.277950048E0,4.669050217E0,8.159654377E0
4.057027700E-1,7.048050404E0,4.048950195E0,6.658050537E0,1.050707615E1
4.082021540E-1,7.315950394E0,4.693050385E0,8.068050385E0,1.185922801E1
4.107014640E-1,6.700950146E0,5.035050392E0,1.054395008E1,1.346957121E1
4.132008380E-1,5.476950169E0,5.197950363E0,1.708305168E1,1.867742825E1
4.156999930E-1,3.781950235E0,5.260050297E0,2.409795189E1,2.495360820E1
4.181996070E-1,2.740950108E0,5.236050129E0,2.202195168E1,2.280121453E1
4.206987630E-1,2.595000029E0,5.097000122E0,1.541400051E1,1.644095031E1
4.231981450E-1,2.785950184E0,5.028000355E0,1.217400074E1,1.346286002E1
4.256974590E-1,3.226950169E0,4.887000084E0,1.081695080E1,1.230050413E1
4.281968420E-1,3.559050083E0,4.525050163E0,1.011495018E1,1.163851939E1
4.306962260E-1,3.682050228E0,4.039050102E0,9.603000641E0,1.104939098E1
4.331956110E-1,3.691050291E0,3.508050203E0,9.400050163E0,1.069070678E1
4.356947480E-1,3.454050064E0,2.932950258E0,9.277950287E0,1.032535813E1
4.381941300E-1,2.980050087E0,2.401050091E0,8.872950554E0,9.663073610E0
4.406934400E-1,2.626050234E0,2.064000130E0,8.407950401E0,9.047091594E0
4.431929000E-1,2.178000212E0,1.828950047E0,7.728000164E0,8.234727059E0
4.456922090E-1,1.642050028E0,1.732950091E0,7.075050354E0,7.466979431E0
4.481915780E-1,1.168050051E0,1.723950028E0,6.780000210E0,7.092583977E0
4.506907340E-1,6.700500250E-1,1.708950043E0,6.430950165E0,6.687794652E0
4.531901160E-1,8.805000782E-2,1.618950129E0,6.145950317E0,6.356214095E0
4.556895010E-1,-7.630500197E-1,1.188000083E0,5.599950314E0,5.775208485E0
4.581888250E-1,-1.518000126E0,5.100000501E-1,4.213950157E0,4.507970759E0
4.606882070E-1,-2.274000168E0,4.480500221E-1,4.482000351E0,5.045805459E0
4.631875920E-1,-2.581050158E0,6.060000062E-1,5.248050213E0,5.879718272E0
4.656867480E-1,-2.506050110E0,9.790500402E-1,7.459950447E0,7.930301811E0
4.681861400E-1,-2.209950209E0,1.554000020E0,8.599950790E0,9.014319141E0
4.706855250E-1,-1.927050114E0,1.944000125E0,6.972000122E0,7.490089741E0
4.731849100E-1,-1.696950078E0,2.325000048E0,6.234000206E0,6.866441827E0
4.756842190E-1,-1.690050125E0,2.593050241E0,6.067050457E0,6.810967643E0
4.781833730E-1,-1.885950089E0,2.695950031E0,6.129000187E0,6.956263192E0
4.806829770E-1,-2.346000195E0,2.586000204E0,5.554950237E0,6.561142134E0
4.831821320E-1,-3.079050064E0,2.212050200E0,3.321000099E0,5.040114785E0
4.856815150E-1,-4.137000084E0,1.968000054E0,2.686050177E0,5.310617616E0
4.881809000E-1,-5.008050442E0,1.864950061E0,3.603000164E0,6.445170140E0
4.906802090E-1,-5.644950390E0,1.896000147E0,4.192049980E0,7.282414744E0
4.931796020E-1,-6.124050140E0,1.972950101E0,4.434000015E0,7.813890091E0
4.956789870E-1,-6.592950344E0,2.032950163E0,4.515000343E0,8.245308284E0
4.981781420E-1,-6.847050190E0,2.125950098E0,4.492050171E0,8.460512683E0
5.006775250E-1,-6.862050533E0,2.169000149E0,4.618050098E0,8.550946490E0
5.031769100E-1,-6.526050091E0,2.179050207E0,4.924950123E0,8.461248330E0
5.056763170E-1,-5.944950104E0,2.164050102E0,5.434950352E0,8.340517364E0
5.081756270E-1,-5.119050026E0,2.128050089E0,6.031050205E0,8.191876276E0
5.106750100E-1,-4.285050392E0,2.016000032E0,6.631950378E0,8.149152030E0
5.131741650E-1,-3.546000242E0,1.858050108E0,7.204050541E0,8.241651055E0
5.156735430E-1,-2.944950104E0,1.585050106E0,7.458000183E0,8.173547680E0
5.181729280E-1,-2.551950216E0,1.237950087E0,7.423950195E0,7.947327024E0
5.206722370E-1,-2.320050001E0,8.520000577E-1,7.153950214E0,7.568853267E0
5.231716200E-1,-2.257050037E0,4.450500309E-1,6.715950489E0,7.099037637E0
5.256710050E-1,-2.346000195E0,5.700000376E-2,6.141000271E0,6.574104520E0
5.281703890E-1,-2.728950024E0,-3.750000298E-1,5.382000446E0,6.045967421E0
5.306695450E-1,-3.001950026E0,-6.859500408E-1,4.626000404E0,5.557167548E0
5.331689280E-1,-3.154950142E0,-8.700000644E-1,3.924000263E0,5.109636834E0
5.356683120E-1,-3.451950073E0,-1.033050060E0,3.199050188E0,4.818409887E0
5.381676220E-1,-3.534000158E0,-1.162950039E0,2.467950106E0,4.464570263E0
5.406670090E-1,-3.775050163E0,-1.234050035E0,1.780950069E0,4.352661987E0
5.431663930E-1,-4.138950348E0,-1.267950058E0,1.201950073E0,4.492581809E0
5.456655490E-1,-4.249050140E0,-1.273050070E0,7.110000253E-1,4.492282784E0
5.481649320E-1,-4.182000160E0,-1.303950071E0,3.139500022E-1,4.391807798E0
5.506643400E-1,-3.961950302E0,-1.390050054E0,-1.020000055E-1,4.199963494E0
5.531637250E-1,-3.783000231E0,-1.455000043E0,-4.519500136E-1,4.078280849E0
5.556630350E-1,-3.523950100E0,-1.546050072E0,-7.840500474E-1,3.927241985E0
5.581624170E-1,-3.366000175E0,-1.708050132E0,-1.038000107E0,3.914694963E0
5.606615730E-1,-3.127050161E0,-1.890000105E0,-1.177050114E0,3.838748504E0
5.631609560E-1,-3.103050232E0,-2.368950129E0,-8.710500598E-1,3.999946707E0
5.656603400E-1,-3.343950272E0,-2.920050144E0,-2.939999998E-1,4.449172087E0
5.681596500E-1,-3.742050171E0,-3.562050104E0,6.610500216E-1,5.208466910E0
5.706590330E-1,-4.060050011E0,-4.279950142E0,2.167050123E0,6.284750237E0
5.731583930E-1,-4.429050446E0,-4.890000343E0,3.325950146E0,7.388540829E0
5.756575490E-1,-4.855050087E0,-5.139000416E0,3.217950106E0,7.767627662E0
5.781569320E-1,-5.098950386E0,-5.155950069E0,2.974050045E0,7.837607405E0
5.806563160E-1,-4.939050198E0,-5.173050404E0,3.397050142E0,7.917993243E0
5.831557010E-1,-4.479000092E0,-5.439000130E0,3.996000290E0,8.100134724E0
5.856550260E-1,-3.889950275E0,-5.908050060E0,4.518000126E0,8.393395844E0
5.881544080E-1,-3.289050102E0,-6.463050365E0,4.939050198E0,8.774000653E0
5.906537930E-1,-2.698050022E0,-6.952050209E0,5.410950184E0,9.213514960E0
5.931529490E-1,-2.200050116E0,-7.356000423E0,6.061950207E0,9.782545837E0
5.956523310E-1,-1.848000050E0,-7.704000473E0,6.673050404E0,1.035839414E1
5.981517210E-1,-1.494000077E0,-8.067000389E0,7.318950176E0,1.099434233E1
6.006511060E-1,-1.221000075E0,-8.419050217E0,7.792950153E0,1.153695453E1
6.031504150E-1,-9.670500755E-1,-8.656050682E0,8.257950783E0,1.200233937E1
6.056497980E-1,-7.900500298E-1,-8.850000381E0,8.719950676E0,1.244926607E1
6.081491880E-1,-6.559500098E-1,-9.034950256E0,9.133950233E0,1.286427780E1
6.106483440E-1,-5.700000525E-1,-9.223950386E0,9.471000671E0,1.323276292E1
6.131477260E-1,-4.999500215E-1,-9.412950516E0,9.772950172E0,1.357807580E1
6.156470360E-1,-4.429500103E-1,-9.645000458E0,9.957000732E0,1.386953864E1
6.181464180E-1,-4.549500346E-1,-9.898950577E0,9.997950554E0,1.407676161E1
6.206458120E-1,-5.479500294E-1,-1.023705006E1,1.017300034E1,1.444255445E1
6.231449680E-1,-1.039050102E0,-1.073205090E1,1.018500042E1,1.483208600E1
6.256443510E-1,-1.357050061E0,-1.129995060E1,9.558000565E0,1.486222874E1
6.281437350E-1,-1.342950106E0,-1.168005085E1,8.916000366E0,1.475541139E1
6.306431200E-1,-1.153950095E0,-1.184505081E1,8.832000732E0,1.482029239E1
6.331424250E-1,-8.659500480E-1,-1.181700039E1,8.983050346E0,1.486897983E1
6.356418070E-1,-5.700000525E-1,-1.163505077E1,8.988000870E0,1.471337712E1
6.381411920E-1,-3.160500228E-1,-1.144995022E1,8.727000237E0,1.440006183E1
6.406403480E-1,-6.900000572E-2,-1.124505043E1,8.302950859E0,1.397837305E1
6.431397300E-1,1.840500087E-1,-1.108905029E1,7.798050404E0,1.355767314E1
6.456391200E-1,4.710000157E-1,-1.094295025E1,7.150950432E0,1.308075278E1
6.481384300E-1,8.350500464E-1,-1.085205078E1,6.418950081E0,1.263595010E1
6.506378120E-1,1.246950030E0,-1.079700089E1,5.659950256E0,1.225418905E1
6.531371970E-1,1.749000072E0,-1.067505074E1,4.966050148E0,1.190283006E1
6.556365810E-1,2.358000040E0,-1.049295044E1,4.357050419E0,1.160370895E1
6.581357370E-1,3.090000153E0,-1.027995014E1,3.826050282E0,1.139579469E1
6.606351200E-1,3.844050169E0,-1.003500080E1,3.436050177E0,1.128203898E1
6.631345050E-1,4.663050175E0,-9.778950691E0,3.172050238E0,1.128865875E1
6.656338140E-1,5.566050053E0,-9.469950676E0,2.964000225E0,1.137744155E1
6.681331970E-1,6.484950542E0,-9.190050125E0,2.902050257E0,1.161608800E1
6.706325710E-1,7.021050453E0,-8.494050026E0,3.012000084E0,1.142436781E1
6.731317270E-1,8.113050461E0,-8.506050110E0,3.421050072E0,1.224246952E1
6.756311100E-1,9.190950394E0,-8.302050591E0,3.658050060E0,1.291429221E1
6.781304200E-1,1.039005089E1,-8.041049957E0,4.033950329E0,1.374352201E1
6.806298020E-1,1.156605053E1,-7.723050594E0,4.675950050E0,1.467254389E1
6.831291680E-1,1.283700085E1,-7.428000450E0,5.332050323E0,1.576053749E1
6.856285520E-1,1.378500080E1,-7.014000416E0,5.643000126E0,1.646407906E1
6.881279370E-1,1.457295036E1,-6.813000202E0,6.394950390E0,1.731136172E1
6.906270930E-1,1.529595089E1,-6.577950478E0,7.053000450E0,1.808259830E1
