"Time (s)","Acceleration x (m/s^2)","Acceleration y (m/s^2)","Acceleration z (m/s^2)","Absolute acceleration (m/s^2)"
3.576559000E-2,-1.709372640E0,3.528815269E0,8.010572433E0,8.918731005E0
3.815204900E-2,-1.690230131E0,3.500101328E0,7.917252064E0,8.819890444E0
4.053855900E-2,-1.651944876E0,3.476173162E0,7.838288784E0,8.732208930E0
4.292507000E-2,-1.601695657E0,3.459423304E0,7.785646915E0,8.668871695E0
4.531158000E-2,-1.539482236E0,3.457030535E0,7.747361660E0,8.622220037E0
4.769809000E-2,-1.467697620E0,3.466601849E0,7.733004570E0,8.600629300E0
5.008460100E-2,-1.393221021E0,3.478565931E0,7.735397339E0,8.595222961E0
5.247111100E-2,-1.316650629E0,3.488137245E0,7.754539967E0,8.604275705E0
5.485757000E-2,-1.237687469E0,3.500101328E0,7.785646915E0,8.625478391E0
5.724408000E-2,-1.149153113E0,3.512065411E0,7.831110477E0,8.659182850E0
5.963059000E-2,-1.055832982E0,3.531208038E0,7.878966808E0,8.698409709E0
6.201710100E-2,-9.625129104E-1,3.559921980E0,7.936394691E0,8.751333402E0
6.440361100E-2,-8.811569214E-1,3.593421459E0,8.008178711E0,8.821566843E0
6.679012200E-2,-8.162516356E-1,3.629313707E0,8.091927528E0,8.906035922E0
6.917663200E-2,-7.683951855E-1,3.663112402E0,8.183154106E0,8.998490693E0
7.156314300E-2,-7.444669604E-1,3.691826344E0,8.271688461E0,9.088709634E0
7.394965300E-2,-7.516453862E-1,3.718147278E0,8.345866203E0,9.167500894E0
7.633611100E-2,-7.899305820E-1,3.739682674E0,8.398508072E0,9.227359030E0
7.872262200E-2,-8.572286963E-1,3.754039526E0,8.429615021E0,9.267473399E0
8.110913200E-2,-9.481559992E-1,3.756432533E0,8.422436714E0,9.270772642E0
8.349564300E-2,-1.053440213E0,3.742075443E0,8.369794846E0,9.228560595E0
8.588215300E-2,-1.173081279E0,3.720540047E0,8.288438797E0,9.160608911E0
8.826866300E-2,-1.314257860E0,3.660719633E0,8.142476082E0,9.023749703E0
9.065517400E-2,-1.443769336E0,3.593421459E0,7.965108395E0,8.856641543E0
9.304168400E-2,-1.544267893E0,3.526422262E0,7.807182312E0,8.704740832E0
9.542814300E-2,-1.613659739E0,3.471387386E0,7.642077446E0,8.547267156E0
9.781465300E-2,-1.663909078E0,3.425923824E0,7.481459141E0,8.395104427E0
1.002011630E-1,-1.685444474E0,3.390031576E0,7.321139812E0,8.242094717E0
1.025876740E-1,-1.680658817E0,3.361317635E0,7.163213730E0,8.089171851E0
1.049741840E-1,-1.654337764E0,3.346960783E0,7.022037029E0,7.952860112E0
1.073606950E-1,-1.611266971E0,3.344567776E0,6.897311211E0,7.832957091E0
1.097472050E-1,-1.556231976E0,3.349353552E0,6.789634228E0,7.729111212E0
1.121337150E-1,-1.491625786E0,3.354139090E0,6.703492641E0,7.642775027E0
1.145201740E-1,-1.407876968E0,3.351746321E0,6.636493683E0,7.566992095E0
1.169066840E-1,-1.299900889E0,3.320639610E0,6.540780544E0,7.449711395E0
1.192931950E-1,-1.161117196E0,3.263211966E0,6.439982891E0,7.312326929E0
1.216797050E-1,-9.984052777E-1,3.220141172E0,6.401698112E0,7.235182167E0
1.240662150E-1,-8.234301209E-1,3.198605776E0,6.416054726E0,7.216292283E0
1.264527260E-1,-6.631109715E-1,3.205784082E0,6.476174355E0,7.256555796E0
1.288392360E-1,-5.386841893E-1,3.251247883E0,6.574280262E0,7.354043406E0
1.312257470E-1,-4.668995142E-1,3.320639610E0,6.698707104E0,7.491149407E0
1.336122570E-1,-4.501497746E-1,3.413959742E0,6.851847649E0,7.668479128E0
1.359987150E-1,-4.980062246E-1,3.528815269E0,7.022037029E0,7.874614368E0
1.383852260E-1,-6.152545214E-1,3.655933857E0,7.203891754E0,8.101879220E0
1.407717360E-1,-8.234301209E-1,3.775574923E0,7.376174927E0,8.327121934E0
1.431582470E-1,-1.089332461E0,3.888037682E0,7.536494255E0,8.549984087E0
1.455447570E-1,-1.393221021E0,3.993321896E0,7.675576687E0,8.763684274E0
1.479312680E-1,-1.716551185E0,4.091427803E0,7.790432453E0,8.965331407E0
1.503177780E-1,-2.030309916E0,4.179962158E0,7.886145115E0,9.153443438E0
1.527042360E-1,-2.324627161E0,4.256831646E0,7.965108395E0,9.325634501E0
1.550907470E-1,-2.597707987E0,4.321437836E0,8.022536278E0,9.475441946E0
1.574772570E-1,-2.848954439E0,4.374079704E0,8.058428764E0,9.601426394E0
1.598637680E-1,-3.078665495E0,4.412364960E0,8.075178146E0,9.703383320E0
1.622502780E-1,-3.291925669E0,4.436293125E0,8.072785378E0,9.781990342E0
1.646367880E-1,-3.459423304E0,4.448257446E0,8.065607071E0,9.839137225E0
1.670232990E-1,-3.586242914E0,4.441078663E0,8.053643227E0,9.871448078E0
1.694098090E-1,-3.665505171E0,4.424329281E0,8.060821533E0,9.898861628E0
1.717963200E-1,-3.694219112E0,4.393222332E0,8.094321251E0,9.922988150E0
1.741827780E-1,-3.746861219E0,4.331008911E0,8.115856171E0,9.932961722E0
1.765692880E-1,-3.773182154E0,4.273581028E0,8.152048111E0,9.947677456E0
1.789557990E-1,-3.725325823E0,4.208974838E0,8.233403206E0,9.969074683E0
1.813423090E-1,-3.677469254E0,4.127319813E0,8.281260490E0,9.956797892E0
1.837288200E-1,-3.619742393E0,4.036392689E0,8.302795410E0,9.916219671E0
1.861153300E-1,-3.538386583E0,3.938287020E0,8.324331284E0,9.865332006E0
1.885018400E-1,-3.433102369E0,3.849752426E0,8.336295128E0,9.803091455E0
1.908882990E-1,-3.315854073E0,3.763610840E0,8.341080666E0,9.733102355E0
1.932748090E-1,-3.179463148E0,3.689433336E0,8.348258972E0,9.665109007E0
1.956613200E-1,-3.026023388E0,3.629313707E0,8.367402077E0,9.609482455E0
1.980478300E-1,-2.880061150E0,3.593421459E0,8.393722534E0,9.574027783E0
2.004343400E-1,-2.793919563E0,3.571886063E0,8.396115303E0,9.542489652E0
2.028208510E-1,-2.691028118E0,3.574278831E0,8.432007790E0,9.545462632E0
2.052073610E-1,-2.612065077E0,3.586242914E0,8.458329201E0,9.551301224E0
2.075938720E-1,-2.566601276E0,3.612564087E0,8.484649658E0,9.572217153E0
2.099803820E-1,-2.547458887E0,3.653541088E0,8.530113220E0,9.622927871E0
2.123668400E-1,-2.564208508E0,3.689433336E0,8.589934349E0,9.694021649E0
2.147533510E-1,-2.607279301E0,3.727718592E0,8.659325600E0,9.781498407E0
2.171398610E-1,-2.652743101E0,3.761218071E0,8.740981102E0,9.878692118E0
2.195263720E-1,-2.710170746E0,3.780360699E0,8.827122688E0,9.977687479E0
2.219128820E-1,-2.741277456E0,3.799503326E0,8.939585686E0,1.009291929E1
2.242993930E-1,-2.731706142E0,3.804288864E0,9.061619759E0,1.020038160E1
2.266859030E-1,-2.712563515E0,3.787539244E0,9.159725189E0,1.027638165E1
2.290724130E-1,-2.702992201E0,3.754039526E0,9.231510162E0,1.032568446E1
2.314589240E-1,-2.688635349E0,3.708575964E0,9.284450531E0,1.035293762E1
2.338453820E-1,-2.688635349E0,3.648755312E0,9.320343018E0,1.036392635E1
2.362318930E-1,-2.702992201E0,3.581457376E0,9.332307816E0,1.035494920E1
2.386184030E-1,-2.765205622E0,3.507279873E0,9.303593636E0,1.032008860E1
2.410049130E-1,-2.822633505E0,3.430709362E0,9.274879456E0,1.028398831E1
2.433914240E-1,-2.894418001E0,3.320639610E0,9.219545364E0,1.021784320E1
2.457779340E-1,-2.956631422E0,3.181855917E0,9.188439369E0,1.016333088E1
2.481644450E-1,-2.994916677E0,3.006880760E0,9.207581520E0,1.013856081E1
2.505509030E-1,-3.004487991E0,2.796312332E0,9.279664993E0,1.014684646E1
2.529374130E-1,-3.030808926E0,2.561815739E0,9.382556915E0,1.018729978E1
2.553239240E-1,-2.992523909E0,2.324627161E0,9.535696983E0,1.026102372E1
2.577104340E-1,-2.963809967E0,2.066202402E0,9.669695854E0,1.032261497E1
2.600969450E-1,-2.982952595E0,1.800299883E0,9.777372360E0,1.037960000E1
2.624834550E-1,-3.059522867E0,1.525125384E0,9.868598938E0,1.044394239E1
2.648699650E-1,-3.212962627E0,1.254437327E0,9.926026344E0,1.050822253E1
2.672564760E-1,-3.421138287E0,9.888339639E-1,9.942776680E0,1.056128723E1
2.696429860E-1,-3.614956856E0,7.325028181E-1,9.940383911E0,1.060262730E1
2.720294450E-1,-3.794717550E0,4.956133962E-1,9.926026344E0,1.063821004E1
2.744159550E-1,-3.971786499E0,2.898306549E-1,9.909276962E0,1.067955335E1
2.768024650E-1,-4.136891365E0,1.124626622E-1,9.897313118E0,1.072768964E1
2.791889760E-1,-4.299902439E0,-2.871387079E-2,9.887741089E0,1.078227292E1
2.815754860E-1,-4.436293125E0,-1.196411327E-1,9.894919395E0,1.084455811E1
2.839619970E-1,-4.563112736E0,-1.746760458E-1,9.909276962E0,1.091083312E1
2.863485070E-1,-4.689932346E0,-1.938186288E-1,9.937990189E0,1.099075430E1
2.887350180E-1,-4.817050934E0,-1.818545163E-1,9.964311600E0,1.106908110E1
2.911214760E-1,-4.912764072E0,-1.435693651E-1,9.985847473E0,1.112982537E1
2.935079860E-1,-5.013262749E0,-8.374879509E-2,9.969097137E0,1.115897464E1
2.958944970E-1,-5.111368179E0,-2.392822644E-3,9.897313118E0,1.113925030E1
2.982810070E-1,-5.185545921E0,1.004985496E-1,9.772586823E0,1.106360880E1
3.006675180E-1,-5.278865814E0,2.129612118E-1,9.564411163E0,1.092656111E1
3.030540280E-1,-5.358128071E0,3.352942765E-1,9.294022560E0,1.073316421E1
3.054405380E-1,-5.403591633E0,4.668995142E-1,8.980263710E0,1.049104065E1
3.078270490E-1,-5.389235020E0,6.032904387E-1,8.630612373E0,1.019290358E1
3.102135070E-1,-5.372485161E0,7.420741320E-1,8.259724617E0,9.881159930E0
3.126000180E-1,-5.259723186E0,8.883354068E-1,7.919644833E0,9.548539264E0
3.149865280E-1,-5.025226593E0,1.041476011E0,7.618149281E0,9.185519749E0
3.173730380E-1,-4.807479858E0,1.180259824E0,7.313961506E0,8.831699086E0
3.197595490E-1,-4.539184570E0,1.297508121E0,7.065107822E0,8.497262643E0
3.221460590E-1,-4.156033993E0,1.388435364E0,6.859025955E0,8.139201949E0
3.245325700E-1,-3.739682674E0,1.438983679E0,6.698707104E0,7.805675973E0
3.269190800E-1,-3.442673683E0,1.443769336E0,6.555137634E0,7.543626541E0
3.293055380E-1,-3.160320520E0,1.422233939E0,6.459424496E0,7.330384709E0
3.316920490E-1,-2.908775091E0,1.352542996E0,6.377769470E0,7.139067762E0
3.340785590E-1,-2.786741018E0,1.220937729E0,6.327520370E0,7.020977744E0
3.364650700E-1,-2.846561670E0,1.036690354E0,6.322734833E0,7.011035302E0
3.388515800E-1,-3.098107100E0,8.282157183E-1,6.392126560E0,7.151467740E0
3.412380900E-1,-3.516851187E0,6.128616929E-1,6.528816700E0,7.441054309E0
3.436246010E-1,-4.065106392E0,3.951148391E-1,6.717849731E0,7.861978805E0
3.460111110E-1,-4.663611412E0,1.866401732E-1,6.947560310E0,8.369749114E0
3.483975700E-1,-5.211866856E0,-4.785645287E-3,7.208677292E0,8.895426202E0
3.507840800E-1,-5.628517151E0,-1.770688742E-1,7.445566654E0,9.335310467E0
3.531705900E-1,-5.959025860E0,-3.017947674E-1,7.637291908E0,9.691712799E0
3.555571010E-1,-6.181558132E0,-3.759722710E-1,7.790432453E0,9.952077868E0
3.579436110E-1,-6.200700760E0,-4.214358926E-1,7.941180229E0,1.008407862E1
3.603301220E-1,-6.126523495E0,-4.166502357E-1,8.053643227E0,1.012763826E1
3.627166320E-1,-6.054738522E0,-3.759722710E-1,8.123034477E0,1.013828895E1
3.651031430E-1,-5.944668770E0,-3.281157911E-1,8.192725182E0,1.012756104E1
3.674896010E-1,-5.860620975E0,-2.751746178E-1,8.235795975E0,1.011192042E1
3.698761110E-1,-5.863013744E0,-2.153540403E-1,8.247760773E0,1.012160389E1
3.722626220E-1,-5.906383514E0,-1.698904037E-1,8.223832130E0,1.012648231E1
3.746491320E-1,-5.970989704E0,-1.339980662E-1,8.161619186E0,1.011349105E1
3.770356430E-1,-6.078666687E0,-1.100698411E-1,8.070392609E0,1.010413484E1
3.794221530E-1,-6.176772594E0,-1.100698411E-1,7.981858253E0,1.009329957E1
3.818086630E-1,-6.284449577E0,-1.196411327E-1,7.917252064E0,1.010898119E1
3.841951740E-1,-6.389733791E0,-1.244267747E-1,7.881359577E0,1.014692115E1
3.865816320E-1,-6.485745907E0,-1.004985496E-1,7.886145115E0,1.021108636E1
3.889681430E-1,-6.588637352E0,-4.307080805E-2,7.922037601E0,1.030391562E1
3.913546530E-1,-6.691528320E0,5.982056633E-2,7.984251022E0,1.041769620E1
3.937411630E-1,-6.801598549E0,2.057827413E-1,8.067999840E0,1.055446402E1
3.961276740E-1,-6.902096748E0,3.879363835E-1,8.166404724E0,1.069951402E1
3.985141840E-1,-6.988238335E0,6.080760360E-1,8.254939079E0,1.083278592E1
4.009006950E-1,-7.050751209E0,8.691928387E-1,8.307580948E0,1.093089612E1
4.032871530E-1,-7.115357399E0,1.146760225E0,8.309973717E0,1.099995605E1
4.056736630E-1,-7.182356358E0,1.434198022E0,8.269295692E0,1.104646632E1
4.080601740E-1,-7.256533623E0,1.733300924E0,8.195118904E0,1.108249007E1
4.104466840E-1,-7.345067978E0,2.030309916E0,8.096714020E0,1.111885605E1
4.128331950E-1,-7.476673603E0,2.307877541E0,7.974679470E0,1.117239722E1
4.152197050E-1,-7.646862984E0,2.561815739E0,7.840681553E0,1.124783093E1
4.176062150E-1,-7.850253105E0,2.774776936E0,7.713861942E0,1.135030955E1
4.199927260E-1,-8.063214302E0,2.944667339E0,7.577471256E0,1.145009001E1
4.223792360E-1,-8.269295692E0,3.078665495E0,7.443173885E0,1.154384121E1
4.247656950E-1,-8.446364403E0,3.191427231E0,7.323532581E0,1.162585089E1
4.271522050E-1,-8.566005707E0,3.303889751E0,7.187141895E0,1.165963764E1
4.295387150E-1,-8.621041298E0,3.421138287E0,7.048357964E0,1.164928711E1
4.319252260E-1,-8.623434067E0,3.531208038E0,6.892525673E0,1.159051144E1
4.343117360E-1,-8.599505424E0,3.626920938E0,6.725028038E0,1.150356689E1
4.366982470E-1,-8.568398476E0,3.699004650E0,6.547959328E0,1.140069556E1
4.390847570E-1,-8.554041862E0,3.749253988E0,6.370591164E0,1.130543982E1
4.414712150E-1,-8.566005707E0,3.789932013E0,6.205486298E0,1.123601792E1
4.438577260E-1,-8.613862038E0,3.840181351E0,6.049952984E0,1.120480000E1
4.462442360E-1,-8.697610855E0,3.919144392E0,5.927918911E0,1.123157825E1
4.486307470E-1,-8.819944382E0,4.033999920E0,5.827121258E0,1.131458865E1
4.510172570E-1,-8.968298912E0,4.184747696E0,5.750551224E0,1.144601844E1
4.534037680E-1,-9.123832703E0,4.364508629E0,5.666802406E0,1.159335621E1
4.557902780E-1,-9.265308380E0,4.532006264E0,5.532804012E0,1.170456921E1
4.581767880E-1,-9.396913528E0,4.687539577E0,5.379663467E0,1.179897412E1
4.605632990E-1,-9.514162064E0,4.852943420E0,5.221437931E0,1.188838735E1
4.629497570E-1,-9.614660263E0,5.051547527E0,5.082654476E0,1.199138028E1
4.653362680E-1,-9.698409081E0,5.298008442E0,4.974977493E0,1.211934129E1
4.677227780E-1,-9.779765129E0,5.566303730E0,4.903192520E0,1.227472363E1
4.701092880E-1,-9.866206169E0,5.848656654E0,4.879264355E0,1.246418988E1
4.724957990E-1,-9.954740524E0,6.136094570E0,4.879264355E0,1.267105900E1
4.748823090E-1,-1.005284595E1,6.420840263E0,4.896014214E0,1.289410162E1
4.772688200E-1,-1.015813065E1,6.681957245E0,4.915156841E0,1.311468405E1
4.796553300E-1,-1.025384331E1,6.926024914E0,4.924727917E0,1.331781021E1
4.820417880E-1,-1.033998489E1,7.165606499E0,4.936692238E0,1.351414571E1
4.844282990E-1,-1.041206837E1,7.400103092E0,4.941477776E0,1.369638259E1
4.868148090E-1,-1.047428226E1,7.627720356E0,4.934299469E0,1.386506466E1
4.892013200E-1,-1.052692413E1,7.852645874E0,4.912764072E0,1.402196241E1
4.915878300E-1,-1.057956600E1,8.072785378E0,4.864907742E0,1.416913575E1
4.939743400E-1,-1.063699436E1,8.295617104E0,4.805087090E0,1.431962898E1
4.963608510E-1,-1.070160007E1,8.530113220E0,4.733003139E0,1.448062134E1
4.987473090E-1,-1.078774166E1,8.752944946E0,4.668396950E0,1.465548858E1
5.011338200E-1,-1.089781189E1,8.961120605E0,4.630111694E0,1.484930708E1
5.035203300E-1,-1.103210926E1,9.145368576E0,4.613361835E0,1.505417911E1
5.059068400E-1,-1.118764210E1,9.291629791E0,4.599005222E0,1.525282167E1
5.082933510E-1,-1.133599758E1,9.447162628E0,4.610969067E0,1.546010215E1
5.106798610E-1,-1.146281719E1,9.631410599E0,4.639683247E0,1.567440298E1
5.130663720E-1,-1.157318592E1,9.827920914E0,4.658825874E0,1.588179210E1
5.154528820E-1,-1.168325520E1,1.002173901E1,4.666004181E0,1.608431844E1
5.178393930E-1,-1.179093266E1,1.019402313E1,4.654039860E0,1.626666184E1
5.202258510E-1,-1.188903809E1,1.034237766E1,4.637290478E0,1.642615187E1
5.226123610E-1,-1.196800137E1,1.045753193E1,4.615755081E0,1.654987087E1
5.249988720E-1,-1.203260803E1,1.052213860E1,4.606183529E0,1.663478234E1
5.273853820E-1,-1.208554935E1,1.052692413E1,4.615755081E0,1.667878382E1
5.297718930E-1,-1.211186981E1,1.049581718E1,4.656432629E0,1.668957559E1
5.321584030E-1,-1.210229874E1,1.044556808E1,4.730610371E0,1.667195855E1
5.345449130E-1,-1.205414295E1,1.038574791E1,4.831408024E0,1.662854851E1
5.369314240E-1,-1.199193001E1,1.031127071E1,4.905585289E0,1.655878788E1
5.393178820E-1,-1.194646645E1,1.023948669E1,4.886443138E0,1.647551137E1
5.417043930E-1,-1.187228870E1,1.014855862E1,4.848157883E0,1.635387159E1
5.440909030E-1,-1.175982571E1,1.004566765E1,4.795515537E0,1.619277334E1
5.464774130E-1,-1.161386395E1,9.926026344E0,4.721039295E0,1.599049864E1
5.488639240E-1,-1.142453194E1,9.770194054E0,4.687539577E0,1.574641702E1
5.512504340E-1,-1.124028397E1,9.602696419E0,4.560719967E0,1.547113211E1
5.536369450E-1,-1.107039356E1,9.463912964E0,4.141676903E0,1.514175517E1
5.560234550E-1,-1.084756279E1,9.270093918E0,3.888037682E0,1.478922232E1
5.584099130E-1,-1.061067295E1,9.011369705E0,3.883252144E0,1.445236353E1
5.607964240E-1,-1.038574791E1,8.717052460E0,4.069892406E0,1.415679298E1
5.631829340E-1,-1.017727280E1,8.427222252E0,4.156033993E0,1.385162716E1
5.655694450E-1,-9.988240242E0,8.161619186E0,4.019642830E0,1.351053290E1
5.679559550E-1,-9.789336205E0,7.929215908E0,3.739682674E0,1.314111086E1
5.703424650E-1,-9.588339806E0,7.723433495E0,3.385245800E0,1.276900835E1
5.727289760E-1,-9.392127991E0,7.474280834E0,3.311068296E0,1.245151057E1
5.751154860E-1,-9.188439369E0,7.211070061E0,3.516851187E0,1.219816346E1
5.775019970E-1,-8.994620323E0,6.966702938E0,3.761218071E0,1.198269193E1
5.798884550E-1,-8.791230202E0,6.763313293E0,3.952643871E0,1.177503838E1
5.822749650E-1,-8.592327118E0,6.591030121E0,4.077070713E0,1.157118269E1
5.846614760E-1,-8.386544228E0,6.430411816E0,4.175176620E0,1.136294064E1
5.870479860E-1,-8.147261620E0,6.286842346E0,4.249652863E0,1.113381372E1
5.894344970E-1,-7.895716667E0,6.162415504E0,4.292723656E0,1.089702633E1
5.918210070E-1,-7.675576687E0,6.045167446E0,4.287938118E0,1.066981444E1
5.942075180E-1,-7.481459141E0,5.939883232E0,4.235296249E0,1.044950611E1
5.965939760E-1,-7.311568737E0,5.851049423E0,4.129712582E0,1.023466378E1
5.989804860E-1,-7.167999268E0,5.772086620E0,3.995714664E0,1.003309190E1
6.013669970E-1,-7.103393078E0,5.685945034E0,3.296711445E0,9.677627318E0
6.037535070E-1,-7.062715054E0,5.638088226E0,2.568994284E0,9.395196347E0
6.061400180E-1,-6.993024349E0,5.609374523E0,2.099701881E0,9.207400289E0
6.085265280E-1,-6.921239376E0,5.599802971E0,1.742872238E0,9.071876953E0
6.109130380E-1,-6.851847649E0,5.616552830E0,1.429412484E0,8.974224308E0
6.132995490E-1,-6.770491600E0,5.609374523E0,1.199402332E0,8.873736812E0
6.156860070E-1,-6.729813576E0,5.633302689E0,9.816554785E-1,8.831089255E0
6.180725180E-1,-6.703492641E0,5.659623623E0,8.907282352E-1,8.818250957E0
6.204590280E-1,-6.672386169E0,5.647659779E0,8.258228898E-1,8.780591188E0
6.228455380E-1,-6.624529362E0,5.606981754E0,7.492526174E-1,8.711143045E0
6.252320490E-1,-6.562315941E0,5.530411243E0,7.803592682E-1,8.617331351E0
6.276185590E-1,-6.497709751E0,5.439484119E0,9.026923180E-1,8.521917209E0
6.300050700E-1,-6.401698112E0,5.331807137E0,1.240080357E0,8.423046085E0
6.323915800E-1,-6.305984974E0,5.271687508E0,1.898405671E0,8.435643411E0
6.347780900E-1,-6.210271835E0,5.195116997E0,2.429911375E0,8.453471841E0
6.371645490E-1,-6.114559174E0,5.085047245E0,2.772384167E0,8.422093169E0
6.395510590E-1,-6.014060497E0,4.934299469E0,2.970988512E0,8.327244902E0
6.419375700E-1,-5.944668770E0,4.728217602E0,2.985345364E0,8.161336619E0
6.443240800E-1,-5.882156372E0,4.527220249E0,2.925524712E0,7.978357075E0
6.467105900E-1,-5.805585861E0,4.333401680E0,2.848954439E0,7.784583400E0
6.490971010E-1,-5.743372440E0,4.165605068E0,2.769991398E0,7.616524464E0
6.514836110E-1,-5.681159019E0,4.012464523E0,2.710170746E0,7.464614178E0
6.538700700E-1,-5.630909920E0,3.871287823E0,2.674278498E0,7.337968480E0
6.562565800E-1,-5.614160061E0,3.749253988E0,2.655135870E0,7.254339746E0
6.586430900E-1,-5.650052547E0,3.651148319E0,2.638386011E0,7.225998795E0
6.610296010E-1,-5.726622581E0,3.569493294E0,2.619243383E0,7.238502916E0
6.634161110E-1,-5.834300041E0,3.497708559E0,2.530709028E0,7.257927412E0
6.658026220E-1,-5.944668770E0,3.452244759E0,2.350948334E0,7.265262468E0
6.681891320E-1,-6.066702843E0,3.433102369E0,2.171486616E0,7.301125214E0
6.705756430E-1,-6.186343670E0,3.449851990E0,1.934298038E0,7.342604147E0
6.729621530E-1,-6.243771553E0,3.454637766E0,1.814656854E0,7.362892421E0
6.753486110E-1,-6.255735874E0,3.445066452E0,1.759621978E0,7.355201132E0
6.777351220E-1,-6.265306950E0,3.440280676E0,1.616052628E0,7.328112199E0
6.801216320E-1,-6.258128643E0,3.430709362E0,1.450947881E0,7.282801013E0
6.825081430E-1,-6.217450619E0,3.387638569E0,1.335793257E0,7.205354321E0
6.848946530E-1,-6.150451660E0,3.303889751E0,1.297508121E0,7.101216124E0
6.872811630E-1,-6.093023777E0,3.179463148E0,1.290329576E0,6.992773060E0
