"Time (s)","Acceleration x (m/s^2)","Acceleration y (m/s^2)","Acceleration z (m/s^2)","Absolute acceleration (m/s^2)"
3.481781500E-2,4.812564552E-1,4.086641788E0,8.214261055E0,9.187291960E0
3.720427400E-2,4.573282301E-1,4.086641788E0,8.132605553E0,9.113125879E0
3.959073200E-2,4.310071766E-1,4.079463482E0,8.051250458E0,9.036062385E0
4.197719000E-2,4.118646085E-1,4.081856251E0,7.984251022E0,8.976605555E0
4.436364900E-2,3.975076675E-1,4.089034557E0,7.934001446E0,8.934573012E0
4.675010700E-2,3.903291821E-1,4.098606110E0,7.881359577E0,8.891949038E0
4.913656500E-2,3.831507266E-1,4.108177185E0,7.843074322E0,8.862152057E0
5.152302400E-2,3.711866140E-1,4.117748737E0,7.826324463E0,8.851270460E0
5.390948200E-2,3.544368446E-1,4.127319813E0,7.835896015E0,8.863501603E0
5.629594000E-2,3.352942765E-1,4.136891365E0,7.862216949E0,8.890486363E0
5.868245100E-2,3.161516786E-1,4.151247978E0,7.912466049E0,8.940913300E0
6.106885700E-2,2.898306549E-1,4.165605068E0,7.972286701E0,8.999645695E0
6.345536700E-2,2.656033039E-1,4.182354927E0,8.046463966E0,9.072387790E0
6.584182600E-2,2.344966233E-1,4.194318771E0,8.132605553E0,9.153500516E0
6.822828400E-2,2.057827413E-1,4.201497555E0,8.228617668E0,9.241486729E0
7.061474200E-2,1.770688742E-1,4.211368084E0,8.319544792E0,9.326403384E0
7.300120100E-2,1.459621787E-1,4.220939159E0,8.412865639E0,9.413497788E0
7.538765900E-2,1.148554832E-1,4.225724697E0,8.499007225E0,9.492263419E0
7.777411700E-2,8.614161611E-2,4.228117466E0,8.580363274E0,9.565930775E0
8.016057600E-2,5.264209956E-2,4.225724697E0,8.661719322E0,9.637681361E0
8.254703400E-2,2.632104978E-2,4.220939159E0,8.731410027E0,9.698172056E0
8.493349200E-2,4.785645287E-3,4.208974838E0,8.779266357E0,9.736067474E0
8.731995100E-2,-7.178467698E-3,4.187140465E0,8.822337151E0,9.765542975E0
8.970646100E-2,-1.196411345E-2,4.163212299E0,8.865407944E0,9.794280872E0
9.209291900E-2,-1.196411345E-2,4.136891365E0,8.896514893E0,9.811319511E0
9.447937800E-2,-7.178467698E-3,4.112963200E0,8.913264275E0,9.816455462E0
9.686583600E-2,0.000000000E0,4.089034557E0,8.915657043E0,9.808626006E0
9.925229400E-2,7.178467698E-3,4.060320854E0,8.918049812E0,9.798870824E0
1.016387530E-1,1.435693540E-2,4.031607151E0,8.930013657E0,9.797918465E0
1.040252110E-1,1.674975827E-2,4.012464523E0,8.939585686E0,9.798793004E0
1.064116690E-1,2.153540403E-2,3.993321896E0,8.941978455E0,9.793164055E0
1.087981280E-1,2.632104978E-2,3.974179268E0,8.946763992E0,9.789758914E0
1.111845860E-1,2.392822690E-2,3.955036640E0,8.951549530E0,9.786374527E0
1.135710440E-1,2.392822690E-2,3.943072557E0,8.958727837E0,9.788115151E0
1.159575030E-1,2.632104978E-2,3.928715706E0,8.961120605E0,9.784537925E0
1.183439610E-1,2.392822690E-2,3.911965847E0,8.958727837E0,9.775625494E0
1.207304710E-1,1.914258115E-2,3.895216227E0,8.963513374E0,9.773313046E0
1.231169300E-1,1.196411345E-2,3.876073599E0,8.963513374E0,9.765687979E0
1.255033880E-1,-2.392822644E-3,3.856930971E0,8.970691681E0,9.764693107E0
1.278898460E-1,-1.674975827E-2,3.830610037E0,8.987442017E0,9.769747582E0
1.302763050E-1,-3.349951655E-2,3.811467409E0,9.020941734E0,9.793150453E0
1.326627630E-1,-5.742774159E-2,3.794717550E0,9.059226990E0,9.822055431E0
1.350492210E-1,-8.853443712E-2,3.782753468E0,9.102297783E0,9.857428015E0
1.374356800E-1,-1.148554832E-1,3.768396616E0,9.166903496E0,9.911918308E0
1.398221380E-1,-1.435693651E-1,3.754039526E0,9.217152596E0,9.953357569E0
1.422085960E-1,-1.698904037E-1,3.742075443E0,9.282057762E0,1.000942494E1
1.445950550E-1,-1.962114573E-1,3.734897137E0,9.341878891E0,1.006273605E1
1.469815130E-1,-2.249253243E-1,3.720540047E0,9.406484604E0,1.011805131E1
1.493679710E-1,-2.679961324E-1,3.699004650E0,9.471091270E0,1.017133360E1
1.517544820E-1,-3.233301640E-1,3.670290947E0,9.538089752E0,1.022500534E1
1.541409400E-1,-3.879363835E-1,3.638885021E0,9.605089188E0,1.027860482E1
1.565273990E-1,-4.549354017E-1,3.605385542E0,9.674481392E0,1.033447441E1
1.589138570E-1,-5.291129351E-1,3.569493294E0,9.763015747E0,1.040854069E1
1.613003150E-1,-6.008976102E-1,3.535993576E0,9.859027863E0,1.049117529E1
1.636867740E-1,-6.702894568E-1,3.509672642E0,9.959526062E0,1.058107978E1
1.660732320E-1,-7.348956466E-1,3.488137245E0,1.006241703E1,1.067517726E1
1.684596900E-1,-7.875377536E-1,3.468994617E0,1.015813065E1,1.076298089E1
1.708461490E-1,-8.353942037E-1,3.459423304E0,1.024666500E1,1.084710269E1
1.732326070E-1,-8.715856671E-1,3.457030535E0,1.033280659E1,1.093058158E1
1.756190650E-1,-8.955138922E-1,3.457030535E0,1.038814068E1,1.098482917E1
1.780055760E-1,-9.170492887E-1,3.454637766E0,1.044078255E1,1.103564414E1
1.803920340E-1,-9.314061999E-1,3.452244759E0,1.049103165E1,1.108364815E1
1.827784920E-1,-9.433703423E-1,3.445066452E0,1.052213860E1,1.111187793E1
1.851649510E-1,-9.553344250E-1,3.442673683E0,1.054367352E1,1.113255214E1
1.875514090E-1,-9.649057388E-1,3.440280676E0,1.054606628E1,1.113490405E1
1.899378670E-1,-9.744769931E-1,3.435495138E0,1.052931690E1,1.111839677E1
1.923243260E-1,-9.720842242E-1,3.425923824E0,1.050299549E1,1.109030279E1
1.947107840E-1,-9.696913958E-1,3.406781197E0,1.046710396E1,1.105019117E1
1.970972420E-1,-9.672985673E-1,3.392424345E0,1.041446114E1,1.099569053E1
1.994837010E-1,-9.601200819E-1,3.375674486E0,1.035912704E1,1.093748243E1
2.018701590E-1,-9.433703423E-1,3.358924866E0,1.028973579E1,1.086512708E1
2.042566170E-1,-9.194421172E-1,3.344567776E0,1.020837975E1,1.078158265E1
2.066430760E-1,-8.907282352E-1,3.323032379E0,1.014138031E1,1.070903990E1
2.090295340E-1,-8.524430394E-1,3.301496983E0,1.006720352E1,1.062897588E1
2.114160440E-1,-8.066803217E-1,3.289532900E0,9.988240242E0,1.054688120E1
2.138025030E-1,-7.540382147E-1,3.284747362E0,9.921240807E0,1.047803216E1
2.161889610E-1,-6.966105103E-1,3.279961586E0,9.851848602E0,1.040684078E1
2.185754190E-1,-6.367899179E-1,3.284747362E0,9.770194054E0,1.032723383E1
2.209618780E-1,-5.745765567E-1,3.287140131E0,9.696016312E0,1.025417772E1
2.233483360E-1,-5.195416212E-1,3.289532900E0,9.617053032E0,1.017736013E1
2.257347940E-1,-4.668995142E-1,3.294318676E0,9.533304214E0,1.009724814E1
2.281212530E-1,-4.214358926E-1,3.291925669E0,9.456734657E0,1.002218605E1
2.305077110E-1,-3.759722710E-1,3.296711445E0,9.380164146E0,9.949730696E0
2.328941690E-1,-3.352942765E-1,3.303889751E0,9.303593636E0,9.878510226E0
2.352806280E-1,-2.994019389E-1,3.315854073E0,9.233902931E0,9.815777763E0
2.376670860E-1,-2.703889608E-1,3.332603693E0,9.174081802E0,9.764380906E0
2.400535440E-1,-2.512463629E-1,3.354139090E0,9.119047165E0,9.719588210E0
2.424400030E-1,-2.416750938E-1,3.380460262E0,9.078369141E0,9.690340793E0
2.448265130E-1,-2.321037948E-1,3.409173965E0,9.047262192E0,9.671054362E0
2.472129710E-1,-2.201396823E-1,3.445066452E0,9.023334503E0,9.661133986E0
2.495994300E-1,-2.033899277E-1,3.480958700E0,9.020941734E0,9.671392387E0
2.519858880E-1,-1.818545163E-1,3.516851187E0,9.032905579E0,9.695086205E0
2.543723460E-1,-1.555334777E-1,3.545564890E0,9.054440498E0,9.725127957E0
2.567588050E-1,-1.316052526E-1,3.567100286E0,9.095118523E0,9.770501796E0
2.591452630E-1,-1.052841991E-1,3.586242914E0,9.147761345E0,9.826177315E0
2.615317210E-1,-7.657032460E-2,3.595814228E0,9.205188751E0,9.882876247E0
2.639181800E-1,-4.307080805E-2,3.595814228E0,9.294022560E0,9.965469904E0
2.663046380E-1,-2.392822644E-3,3.588635683E0,9.382556915E0,1.004543110E1
2.686911490E-1,4.067798331E-2,3.583850145E0,9.456734657E0,1.011313339E1
2.710775550E-1,7.417750359E-2,3.574278831E0,9.521340370E0,1.017039301E1
2.734640650E-1,1.028913707E-1,3.562314749E0,9.569196701E0,1.021127801E1
2.758505240E-1,1.292124242E-1,3.557528973E0,9.619445801E0,1.025701934E1
2.782369820E-1,1.459621787E-1,3.555136204E0,9.662516594E0,1.029682113E1
2.806234400E-1,1.579262912E-1,3.555136204E0,9.696016312E0,1.032843969E1
2.830098990E-1,1.722832322E-1,3.562314749E0,9.729516029E0,1.036258896E1
2.853963570E-1,1.794617027E-1,3.569493294E0,9.758230209E0,1.039213865E1
2.877828150E-1,1.842473447E-1,3.579064369E0,9.765408516E0,1.040225227E1
2.901692740E-1,1.794617027E-1,3.598206997E0,9.779765129E0,1.042224093E1
2.925557320E-1,1.722832322E-1,3.622135162E0,9.786943436E0,1.043713593E1
2.949421900E-1,1.651047617E-1,3.643670797E0,9.784550667E0,1.044227122E1
2.973286490E-1,1.651047617E-1,3.658326626E0,9.796515465E0,1.045860070E1
2.997151070E-1,1.698904037E-1,3.670290947E0,9.808479309E0,1.047407107E1
3.021015650E-1,1.770688742E-1,3.677469254E0,9.823135376E0,1.049043003E1
3.044880240E-1,1.986042857E-1,3.679862022E0,9.863813400E0,1.052975038E1
3.068745340E-1,2.249253243E-1,3.672683716E0,9.914062500E0,1.057486796E1
3.092609920E-1,2.584248483E-1,3.663112402E0,9.964311600E0,1.061944827E1
3.116474510E-1,2.922234535E-1,3.646063566E0,1.001456070E1,1.066164153E1
3.140339090E-1,3.161516786E-1,3.617349625E0,1.004088211E1,1.067728822E1
3.164203670E-1,3.329014480E-1,3.581457376E0,1.006959629E1,1.069272789E1
3.188068260E-1,3.424727321E-1,3.543172121E0,1.009352398E1,1.070283059E1
3.211932840E-1,3.472583890E-1,3.507279873E0,1.010548782E1,1.070245227E1
3.235797420E-1,3.520440459E-1,3.471387386E0,1.013898754E1,1.072257123E1
3.259662010E-1,3.520440459E-1,3.442673683E0,1.015813065E1,1.073142839E1
3.283526590E-1,3.616153300E-1,3.418745279E0,1.020359421E1,1.076716860E1
3.307391170E-1,3.807578981E-1,3.409173965E0,1.024187946E1,1.080108970E1
3.331255760E-1,4.142574072E-1,3.404388428E0,1.030169964E1,1.085755429E1
3.355120340E-1,4.501497746E-1,3.401995659E0,1.033759212E1,1.089229178E1
3.378985440E-1,4.908277392E-1,3.404388428E0,1.037827015E1,1.093340129E1
3.402850030E-1,5.315057039E-1,3.409173965E0,1.040489006E1,1.096205741E1
3.426714610E-1,5.697908998E-1,3.411566973E0,1.040967560E1,1.096926602E1
3.450579190E-1,6.056832075E-1,3.404388428E0,1.039531898E1,1.095533521E1
3.474443780E-1,6.367899179E-1,3.387638569E0,1.035912704E1,1.091755969E1
3.498308360E-1,6.655037999E-1,3.363710403E0,1.029691410E1,1.085282834E1
3.522172940E-1,6.870391965E-1,3.330210924E0,1.021795082E1,1.076888326E1
3.546037530E-1,7.013961077E-1,3.284747362E0,1.010548782E1,1.064905657E1
3.569902110E-1,7.205387354E-1,3.232105255E0,9.971489906E0,1.050696395E1
3.593766690E-1,7.444669604E-1,3.177070379E0,9.823135376E0,1.035094179E1
3.617631280E-1,7.731808424E-1,3.129213810E0,9.667302132E0,1.019051118E1
3.641495860E-1,8.138588071E-1,3.085843801E0,9.499805450E0,1.002153190E1
3.665360440E-1,8.739784956E-1,3.042773008E0,9.320343018E0,9.843327687E0
3.689225550E-1,9.601200819E-1,2.994916677E0,9.128618240E0,9.655207271E0
3.713090130E-1,1.067797065E0,2.942274570E0,8.925228119E0,9.458164050E0
3.736954710E-1,1.192223907E0,2.887239695E0,8.717052460E0,9.259835554E0
3.760819300E-1,1.328614831E0,2.829811811E0,8.494221687E0,9.051234962E0
3.784683880E-1,1.470090389E0,2.772384167E0,8.274081230E0,8.849163798E0
3.808548460E-1,1.606481314E0,2.707777977E0,8.056035995E0,8.649425400E0
3.832413050E-1,1.728515267E0,2.647957325E0,7.847859859E0,8.460989741E0
3.856277630E-1,1.833799481E0,2.585743904E0,7.644470215E0,8.275676223E0
3.880142210E-1,1.929512382E0,2.525923491E0,7.450352192E0,8.100065141E0
3.904006800E-1,2.015953064E0,2.472982168E0,7.270890713E0,7.940123382E0
3.927871380E-1,2.087737799E0,2.429911375E0,7.103393078E0,7.792388057E0
3.951735960E-1,2.147558212E0,2.401197433E0,6.945167542E0,7.655919773E0
3.975600550E-1,2.197807550E0,2.386840582E0,6.789634228E0,7.525058069E0
3.999465130E-1,2.238485575E0,2.386840582E0,6.636493683E0,7.399383355E0
4.023330240E-1,2.267199516E0,2.398804665E0,6.480959892E0,7.273052907E0
4.047194820E-1,2.279163599E0,2.425125837E0,6.320342064E0,7.143006779E0
4.071059400E-1,2.276770830E0,2.472982168E0,6.160022736E0,7.017492880E0
4.094923990E-1,2.262413740E0,2.528316259E0,6.016453266E0,6.907141879E0
4.118788570E-1,2.238485575E0,2.592922449E0,5.865406513E0,6.792426522E0
4.142653150E-1,2.207378864E0,2.669492722E0,5.712265968E0,6.680471191E0
4.166517740E-1,2.173879385E0,2.750848770E0,5.568696499E0,6.580524389E0
4.190382320E-1,2.135594130E0,2.832204819E0,5.429912567E0,6.485838181E0
4.214246900E-1,2.097309113E0,2.918346405E0,5.293222904E0,6.397941854E0
4.238111490E-1,2.063809633E0,3.002095222E0,5.180759907E0,6.333416072E0
4.261976070E-1,2.032702923E0,3.083451033E0,5.089832783E0,6.288557005E0
4.285840650E-1,2.006381750E0,3.153141975E0,5.010869503E0,6.251134715E0
4.309705240E-1,1.989632010E0,3.208176851E0,4.958227634E0,6.231777878E0
4.333570340E-1,2.011167526E0,3.258426189E0,4.924727917E0,6.238195340E0
4.357434400E-1,2.085345030E0,3.294318676E0,4.903192520E0,6.264383156E0
4.381299510E-1,2.190629244E0,3.299104214E0,4.886443138E0,6.289695671E0
4.405164090E-1,2.300698996E0,3.287140131E0,4.881657124E0,6.318946303E0
4.429028670E-1,2.389233351E0,3.272783279E0,4.931906700E0,6.383043952E0
4.452893260E-1,2.432304144E0,3.267997503E0,5.068297386E0,6.502580221E0
4.476757840E-1,2.408375978E0,3.294318676E0,5.314758301E0,6.700706395E0
4.500622420E-1,2.305484533E0,3.363710403E0,5.695516109E0,7.004906164E0
4.524487010E-1,2.126022816E0,3.476173162E0,6.186343670E0,7.407739255E0
4.548351590E-1,1.896012783E0,3.631706476E0,6.734599113E0,7.882828276E0
4.572216170E-1,1.647159338E0,3.809074640E0,7.294818878E0,8.392649520E0
4.596080760E-1,1.400399446E0,3.988536358E0,7.819146156E0,8.888677489E0
4.619945340E-1,1.185045362E0,4.156033993E0,8.231010437E0,9.296584527E0
4.643809920E-1,9.840483069E-1,4.321437836E0,8.501399994E0,9.587334243E0
4.667674510E-1,7.995018363E-1,4.479363918E0,8.597112656E0,9.726985675E0
4.691539610E-1,6.487540603E-1,4.608576298E0,8.518149376E0,9.706633099E0
4.715404190E-1,5.338985324E-1,4.706682205E0,8.312366486E0,9.567305870E0
4.739268780E-1,4.573282301E-1,4.771587372E0,8.024929047E0,9.347549484E0
4.763133360E-1,4.094717801E-1,4.814658165E0,7.687541008E0,9.080026825E0
4.786997940E-1,3.903291821E-1,4.843372345E0,7.323532581E0,8.788898794E0
4.810862530E-1,3.927220106E-1,4.864907742E0,6.985845566E0,8.521947910E0
4.834727110E-1,3.927220106E-1,4.881657124E0,6.679564476E0,8.282595513E0
4.858591690E-1,3.807578981E-1,4.905585289E0,6.432804585E0,8.098809692E0
4.882456280E-1,3.592225015E-1,4.927121162E0,6.265306950E0,7.978698824E0
4.906320860E-1,3.281157911E-1,4.939085007E0,6.171987057E0,7.911740953E0
4.930185440E-1,2.898306549E-1,4.929513931E0,6.145665646E0,7.883737415E0
4.954050030E-1,2.608176768E-1,4.881657124E0,6.186343670E0,7.884760626E0
4.977914610E-1,2.632105052E-1,4.766502857E0,6.284449577E0,7.891966532E0
5.001779190E-1,3.209373355E-1,4.563112736E0,6.399304867E0,7.866136370E0
5.025643780E-1,4.525425732E-1,4.266402721E0,6.497709751E0,7.786348244E0
5.049508880E-1,6.559324861E-1,3.878466368E0,6.557530403E0,7.646826386E0
5.073373460E-1,9.122636318E-1,3.428316593E0,6.581458569E0,7.476708934E0
5.097238050E-1,1.199402332E0,2.944667339E0,6.555137634E0,7.285565256E0
5.121102630E-1,1.494018674E0,2.453839540E0,6.502495766E0,7.108858662E0
5.144967210E-1,1.776371717E0,1.987239242E0,6.432804585E0,6.963159563E0
5.168831800E-1,2.032702923E0,1.565803289E0,6.363412857E0,6.861242184E0
5.192696380E-1,2.252842426E0,1.201795220E0,6.325127602E0,6.821059296E0
5.216560960E-1,2.437089920E0,9.026923180E-1,6.325127602E0,6.838238068E0
5.240425550E-1,2.600100994E0,6.702894568E-1,6.337091446E0,6.882480739E0
5.264290130E-1,2.748456001E0,5.027918816E-1,6.363412857E0,6.949808145E0
5.288154710E-1,2.892025232E0,3.903291821E-1,6.408876419E0,7.042007084E0
5.312019300E-1,3.033201694E0,3.185445070E-1,6.437590122E0,7.123506840E0
5.335883880E-1,3.167499065E0,2.703889608E-1,6.454638958E0,7.195034718E0
5.359748460E-1,3.301496983E0,2.488535494E-1,6.454638958E0,7.254252166E0
5.383613570E-1,3.435495138E0,2.440679073E-1,6.437590122E0,7.301011065E0
5.407478150E-1,3.571886063E0,2.416750938E-1,6.396912098E0,7.330570325E0
5.431342740E-1,3.706183195E0,2.321037948E-1,6.332305908E0,7.340828575E0
5.455207320E-1,3.837788343E0,2.201396823E-1,6.241378784E0,7.330203952E0
5.479071900E-1,3.964607954E0,1.986042857E-1,6.126523495E0,7.300126713E0
5.502936490E-1,4.091427803E0,1.674975902E-1,6.014060497E0,7.275765291E0
5.526801070E-1,4.218546391E0,1.268195957E-1,5.906383514E0,7.259310097E0
5.550665650E-1,4.333401680E0,7.178468257E-2,5.805585861E0,7.244884426E0
5.574530240E-1,4.441078663E0,1.196411345E-2,5.712265968E0,7.235558397E0
5.598394820E-1,4.534399033E0,-5.742774159E-2,5.621338367E0,7.222431555E0
5.622259400E-1,4.615755081E0,-1.339980662E-1,5.530411243E0,7.204762243E0
5.646123990E-1,4.689932346E0,-2.033899277E-1,5.429912567E0,7.177797947E0
5.669988570E-1,4.761716843E0,-2.826521695E-1,5.329114914E0,7.152153893E0
5.693853670E-1,4.821836948E0,-3.687937856E-1,5.228616714E0,7.122117182E0
5.717718260E-1,4.879264355E0,-4.692923427E-1,5.128118038E0,7.094015123E0
5.741582840E-1,4.931906700E0,-5.745765567E-1,5.044369221E0,7.078100222E0
5.765447420E-1,4.986941338E0,-6.846463680E-1,4.977370262E0,7.079021068E0
5.789312010E-1,5.037190914E0,-7.971090674E-1,4.912764072E0,7.081237604E0
5.813176590E-1,5.087440014E0,-9.122636318E-1,4.862514496E0,7.096359493E0
5.837041170E-1,5.130510807E0,-1.027119160E0,4.821836948E0,7.115281194E0
5.860905760E-1,5.149653435E0,-1.141974568E0,4.788337231E0,7.123988339E0
5.884770340E-1,5.152046204E0,-1.242473125E0,4.742574692E0,7.111914950E0
5.908634920E-1,5.147260666E0,-1.342971683E0,4.723432064E0,7.113977493E0
5.932499510E-1,5.132903576E0,-1.429412484E0,4.685146809E0,7.095105340E0
5.956364090E-1,5.097011566E0,-1.505982757E0,4.661218643E0,7.069262352E0
5.980228670E-1,5.034798145E0,-1.568196177E0,4.666004181E0,7.041308588E0
6.004093260E-1,4.951049328E0,-1.616052628E0,4.685146809E0,7.005363385E0
6.027957840E-1,4.845765114E0,-1.656730533E0,4.728217602E0,6.970095931E0
6.051822940E-1,4.728217602E0,-1.695015788E0,4.824229717E0,6.964360170E0
6.075687530E-1,4.603790760E0,-1.730908036E0,4.972584724E0,6.994106865E0
6.099552110E-1,4.479363918E0,-1.762014747E0,5.147260666E0,7.047246941E0
6.123416690E-1,4.371686935E0,-1.790728688E0,5.367699623E0,7.150563274E0
6.147281280E-1,4.287938118E0,-1.826620936E0,5.618945599E0,7.300377181E0
6.171145860E-1,4.235296249E0,-1.855334878E0,5.882156372E0,7.481962671E0
6.195010440E-1,4.218546391E0,-1.879263043E0,6.162415504E0,7.700852426E0
6.218875030E-1,4.225724697E0,-1.893620014E0,6.459424496E0,7.947748788E0
6.242739610E-1,4.247260094E0,-1.886441588E0,6.720242500E0,8.170651102E0
6.266604190E-1,4.273581028E0,-1.855334878E0,6.940382004E0,8.359106691E0
6.290468780E-1,4.309473515E0,-1.809871197E0,7.139285564E0,8.533263976E0
6.314333360E-1,4.357329845E0,-1.742872238E0,7.306783199E0,8.684066314E0
6.338197940E-1,4.405186653E0,-1.659123421E0,7.440781116E0,8.804747787E0
6.362062530E-1,4.450650215E0,-1.565803289E0,7.560422421E0,8.911790755E0
6.385927110E-1,4.481756687E0,-1.467697620E0,7.670791149E0,9.004516431E0
6.409792210E-1,4.488935471E0,-1.362114310E0,7.761718273E0,9.069187814E0
6.433656800E-1,4.486542225E0,-1.249651670E0,7.833503246E0,9.113422164E0
6.457521380E-1,4.472185612E0,-1.137188911E0,7.905287743E0,9.153535768E0
6.481385960E-1,4.460221291E0,-1.036690354E0,7.953144073E0,9.177189194E0
6.505250550E-1,4.484149456E0,-9.433703423E-1,8.005785942E0,9.224432367E0
6.529115130E-1,4.424329281E0,-8.596215248E-1,8.024929047E0,9.203973324E0
6.552979710E-1,4.381258488E0,-7.612167001E-1,8.075178146E0,9.218643007E0
6.576844300E-1,4.345366001E0,-6.583253145E-1,8.123034477E0,9.235761313E0
6.600708880E-1,4.326223373E0,-5.482555032E-1,8.178368568E0,9.268360438E0
6.624573460E-1,4.316651821E0,-4.381856322E-1,8.223832130E0,9.298220502E0
6.648438050E-1,4.323830605E0,-3.209373355E-1,8.264510155E0,9.332772362E0
6.672302630E-1,4.335794449E0,-2.009970993E-1,8.317152023E0,9.381605999E0
6.696167210E-1,4.347758770E0,-6.939185411E-2,8.365009308E0,9.427682763E0
6.720031800E-1,4.352544308E0,6.221338734E-2,8.400900841E0,9.461693685E0
6.743896380E-1,4.347758770E0,2.009970993E-1,8.432007790E0,9.489054828E0
6.767761490E-1,4.335794449E0,3.424727321E-1,8.451150894E0,9.504648995E0
6.791626070E-1,4.311866283E0,4.860421121E-1,8.463114738E0,9.510664480E0
6.815490650E-1,4.273581028E0,6.296114326E-1,8.470293045E0,9.508194867E0
6.839355240E-1,4.218546391E0,7.731808424E-1,8.494221687E0,9.515552760E0
6.863219820E-1,4.139284134E0,9.146564603E-1,8.503792763E0,9.501829347E0
6.887084400E-1,4.050749779E0,1.055832982E0,8.518149376E0,9.491165674E0
